##TITLE=2-nitrophenol - 200707-chB 120.3ppb
##JCAMP-DX=5.01  $$ Nicolet v. 521
##DATATYPE=INFRARED SPECTRUM
##ORIGIN=ceam
##OWNER=Nicolet
##LONGDATE=2007/07/20
##TIME=17:36:48
##DATA PROCESSING=
Ratio against background
%Transmittance->Absorbance
Straight Line generate
Truncated
ElementMultiply or ElementDivide
##XUNITS=1/CM
##YUNITS=ABSORBANCE
##FIRSTX=649.903564
##LASTX=4000.185791
##FIRSTY=0.016448
##MAXX=4000.185791
##MINX=649.903564
##MAXY=0.405136
##MINY=-0.513862
##XFACTOR=1.000000
##YFACTOR=1.000000E-009
##NPOINTS=6950
##DELTAX=0.482124
##XYDATA=(X++(Y..Y))
649.904 16447725 28837782 15623560 9308769 20364042 31761718 36837424 
653.278 41400324 37828816 24699882 32383330 34391864 26902260 15523653 
656.653 17377592 13793184 17057850 13114780 14228879 27080738 34197880 
660.028 19835716 25895168 45267576 49037832 25100952 16030462 33845884 
663.403 52839348 41333084 32226924 29365056 21739826 6521060 23955846 
666.778 13501666 -10461161 -2031516 43240400 60279372 62067804 49074036 
670.152 45183264 47215412 12274448 26003434 54948784 46893308 52361816 
673.527 46314288 30382296 12409168 10422163 22589128 50164712 58754480 
676.902 46716612 41039640 76057872 56261192 39658944 35501892 43761864 
680.277 34332156 34601076 41497908 29681616 4093736 14862772 20754908 
683.652 30773252 41882656 32320574 30461652 41693284 30230482 41814100 
687.027 61746036 43287256 33393648 40163400 52025644 35579208 31041044 
690.401 53419228 34316592 35696428 63251696 32901488 23727482 34698476 
693.776 20041396 20342200 27169546 31358938 24301984 26682312 22720768 
697.151 23758802 29087734 38405968 31453614 23591022 23440968 24030326 
700.526 23082414 27256964 32359768 27928300 26054692 26434338 26850196 
703.901 24740182 23176280 23090800 24797570 24819918 24902510 23707918 
707.275 21498800 22991746 20940440 16679214 16099297 17496830 15783649 
710.650 13596801 14198033 15485367 14038835 13502076 14086098 13151220 
714.025 11346077 12827675 13232682 10897023 10542560 11208047 9448499 
717.400 9117853 12029182 15297379 18196668 21709240 12078272 35199856 
720.775 -533882 3908942 5111843 5581063 6303225 7327138 7199071 5652222 
724.632 5387182 5851024 5476964 5665381 6760879 7612079 7014400 7587329 
728.489 6874677 6529974 6990223 7687248 8162163 8424747 9206583 8753750 
732.346 8986923 10176583 10782097 11668690 13387280 15165568 14404588 
735.720 14720776 14843365 16028570 17891372 19069736 19917436 20767940 
739.095 21512586 21523276 22759734 24334750 24506286 24655690 23904590 
742.470 23339250 22857336 23136962 23374004 23893212 24509686 24378274 
745.845 27008872 33315360 48406748 73498584 95216736 99421960 66716848 
749.220 37688684 28021948 26817736 26734356 26966104 26679386 25959850 
752.594 25908532 25587506 25247368 25042856 24797324 24451598 23848194 
755.969 23783932 23061904 22936134 22630454 21131826 19954068 19081682 
759.344 17596950 16491948 15716515 14296401 13012992 11981154 10654264 
762.719 9731108 8949681 8637125 8232260 7665798 6765792 6448750 6486921 
766.576 6086037 5599690 5190537 5694687 5858412 5260289 5193990 5423281 
770.433 5561966 4938513 4852661 5706739 5904156 5220885 5016102 5415665 
774.290 5783023 5514983 4979837 4286974 4323014 4924270 5528675 5103629 
778.147 4996293 5719228 7010460 8255763 9688585 10751868 10693996 8897663 
782.004 6060837 4694942 4675147 4449265 4150634 4212358 4341555 3922817 
785.860 3649374 3570859 3935122 4106981 3878619 3405791 3175026 3704911 
789.717 3970799 3835328 4098954 3908207 3499941 2692894 2553921 3089890 
793.574 3242587 2912094 2759779 2764181 3446935 3248663 2511328 2384340 
797.431 2341498 2620685 3386856 3306151 2570320 2135472 1782230 1821058 
801.288 1803124 2085994 2138368 2009359 2202205 2343163 2515660 2488434 
805.145 2253094 2382708 2581652 2642220 2886210 3013844 3033330 3159740 
809.002 3481804 3931678 4331381 4458972 4524256 4741368 5407680 6059526 
812.859 6147297 5997271 6318825 7237477 7831145 7959297 8178437 8292203 
816.716 8260220 8322836 8364921 8112905 7795621 7818662 7833675 7610022 
820.573 7509111 7617777 7888164 8065444 8270723 8396302 8643818 8925634 
824.430 8978500 8939433 8979380 8565443 7791337 7492659 7545251 7349312 
828.287 7032618 6917666 6611044 6088187 5659036 5103696 4917300 4838924 
832.144 4740765 4883790 4819190 4506679 4136718 4039453 4051226 4004439 
836.001 3941541 3766338 3574234 3574902 3640052 3848699 3717009 3534313 
839.858 3482572 3489520 3491156 3402985 3150829 3252301 3748624 3955885 
843.714 3835294 3880525 3747321 3703374 3906970 3955418 3900016 3921848 
847.571 4010258 4103436 3813199 4043834 4583488 4639580 4566209 4575183 
851.428 4442904 4504034 4881812 4973536 4800227 4844687 4768836 4504503 
855.285 4628026 4861574 4862077 5084151 5213171 5277495 5463308 5798167 
859.142 6465465 7131027 7639022 7994394 8171717 8305206 8325470 9103404 
862.999 10704829 11992020 12871224 13855303 14892911 16022932 16810142 
866.374 17660374 18231842 18110574 17830226 17053196 16017810 15690887 
869.749 15843784 16530082 18091814 20553578 22677162 22905638 20524326 
873.124 16641719 14777267 15047723 15847392 16900664 18244350 19108306 
876.498 19157994 19275054 18741478 17850390 16566053 15051498 13604083 
879.873 12145120 10836210 9631769 8511038 7764925 7222013 6828158 6005031 
883.730 5461395 5491091 5194359 4509558 4290487 4415958 4611348 4545148 
887.587 4461617 4627791 4504870 4361468 4369032 4177196 4192987 4153110 
891.444 4260305 4377868 4389515 4065674 3983439 4062430 3978724 3704644 
895.301 4150434 4426168 4248962 4001062 3656592 3635976 3745783 3512233 
899.158 3642892 3870529 3851641 3841312 3757013 3642859 3687167 3857391 
903.015 4163146 4145918 3807784 3689239 3595649 3592174 4056777 4032798 
906.872 4128256 3912687 3820486 3907538 3603701 3506688 3842047 3748223 
910.729 3916565 4145081 4449332 4109791 3740470 3880057 4127051 3912085 
914.586 3792341 3789856 3787371 3784886 3782401 3779916 3777431 3774946 
918.443 3772462 3769977 3767492 3765007 3762522 3760037 3757552 3755067 
922.299 3752582 3750097 3747612 3745127 3742642 3740157 3737672 3735187 
926.156 3732703 3730218 3727733 3725248 3722763 3720278 3717793 3715308 
930.013 3712823 3710338 3707853 3705368 3702883 3700398 3697913 3695428 
933.870 3692943 3690458 3687973 3685488 3683003 3680518 3678033 3675549 
937.727 3673064 3670579 3668094 3665609 3663124 3660639 3658154 3655669 
941.584 3653184 3650699 3648214 3645729 3643244 3640759 3638274 3635789 
945.441 3633305 3630820 3628334 3625850 3623365 3620880 3618395 3615910 
949.298 3613425 3610940 3608455 3605970 3603485 3601000 3598515 3596030 
953.155 3593545 3591060 3588575 3586090 3583605 3581120 3578636 3576151 
957.012 3573666 3571181 3568696 3566211 3563726 3561241 3558756 3556271 
960.869 3553786 3551301 3548816 3546331 3543846 3541361 3623213 3802269 
964.726 3617098 3652682 3624549 3562274 3355968 3542664 3338305 3241686 
968.583 3184105 3399279 3308589 3213312 3211142 3524292 3380411 3498338 
972.440 3306519 3354132 3572363 3811193 3885807 3950970 3605838 3493394 
976.297 3330124 3703474 3778370 3519515 3589668 3884469 3706749 3973842 
980.154 4127519 4233069 4094371 4294536 4605455 4762404 4602776 4651703 
984.010 4792856 5207404 5094846 4957884 4969815 4875479 4699195 4816141 
987.867 4728906 4559078 4339915 4634590 4565540 4389817 4709412 5262403 
991.724 5094376 4824952 4363710 4379073 4567984 4533999 4540461 4620022 
995.581 4300526 4244745 3985512 3989926 3870596 3849869 3748023 3741472 
999.438 3832185 3877883 3707250 3731547 3794013 3815405 3624048 3618568 
1003.295 3712598 3634038 3592809 3805377 3684661 3648138 3757648 3728572 
1007.152 3621608 3620172 3547174 3686566 3798024 3689005 3467609 3586929 
1011.009 3711228 3663943 3731646 3898378 3854014 4038651 4059620 4316455 
1014.866 4340082 4455926 4890525 5132227 4957113 5005980 5107451 5619863 
1018.723 5978861 6331701 6450667 6651887 6934702 7454298 8178572 8829522 
1022.580 9096096 9632853 10280118 10840626 11329412 11821914 12378247 
1025.955 12857606 13044130 13528601 13588732 13297931 12625654 11978429 
1029.330 11127985 10227941 9783022 10140223 10209690 10121671 10697833 
1032.705 11682373 12498676 13134622 13145003 13056286 12796859 12419670 
1036.081 12023084 11357368 10715086 10278117 9769603 9007118 8268427 7886443 
1039.938 7432119 6965172 6494859 6093832 5890284 5950207 5381110 5147215 
1043.795 5118146 5259149 5040605 4704722 4422351 4313142 4217377 4127586 
1047.653 4002132 3881160 3768611 3813466 3775997 3559234 3838336 4040824 
1051.510 3909912 4046677 4096612 4139595 4067346 3904730 3925091 4038483 
1055.368 3988990 4056911 3960567 4072062 4150066 4250601 4080524 3790169 
1059.225 4007114 4374052 4124208 3872234 3982737 4238723 4349922 4362171 
1063.083 4476749 4630069 4619386 4847702 4841939 4784381 5025756 5087202 
1066.940 4906375 5122404 5407244 5608988 5627080 5914098 6364045 6597923 
1070.797 6691658 6959348 7429052 8244754 8832058 9104250 9281756 9597758 
1074.655 9814371 9926599 10125944 10499856 10492490 10566494 10343499 
1078.030 10132320 10168782 10240187 10296268 10414798 10593282 10962465 
1081.405 11085834 10761956 10188353 10197884 10585914 10961412 11119112 
1084.781 11263336 11128256 10738146 10531561 10190999 9693463 9285954 
1088.156 8793950 8384107 7848655 7566795 7205877 6837381 6545884 6303931 
1092.013 6186753 6026432 5860494 5932908 5755959 5596032 5606303 5530622 
1095.871 5350080 5353837 5315664 5378593 5319119 5204084 5122136 5196874 
1099.728 5349241 5277461 5311203 5401775 5246204 5198551 5189161 5127031 
1103.585 5132194 5003500 5091124 5506191 5642218 5859990 5957261 5767778 
1107.443 5712648 5684482 5677499 5832922 5819557 5820397 5912150 6061307 
1111.300 6185476 6124277 6049816 6060668 5961930 6012724 6027776 6113558 
1115.158 6067220 5923872 6037553 6088826 5957664 6106635 6052437 6008491 
1119.015 6069237 6028582 5972176 6070077 6278853 6304704 6041013 5972612 
1122.873 5853240 5821841 5905231 6002175 5980272 5902174 5895154 6159429 
1126.730 6235825 6372955 6648287 6865184 7160265 7553073 7820012 8148523 
1130.587 8606808 9019737 9425404 10132727 10902187 11548252 12213613 
1133.963 12895593 13400470 13968957 14530446 14658329 14197143 13779571 
1137.338 13338246 12718208 12013854 11831482 12754342 14091506 13273913 
1140.713 11772683 11789262 12463178 13105082 13848495 14282499 14449083 
1144.088 14508691 14280103 14056322 13792912 13183837 12572750 12016476 
1147.464 11421146 10689310 10140596 9982369 9770857 9387821 9139780 8864791 
1151.321 9077555 9311850 9357621 9406578 9634072 9710575 9761605 9815184 
1155.178 10025362 10058356 9927583 9773466 9471627 9277186 9277051 9398418 
1159.036 9648267 9833926 10205382 10187471 9910362 9965282 10058830 10130082 
1162.893 10200565 10282323 10516726 10861520 11373490 11237255 10397694 
1166.269 10124757 10265156 9922599 9322885 9028227 9134738 8896649 8487183 
1170.126 8270994 8227768 8242491 8032905 7986093 8268326 8228917 8342730 
1173.983 8967507 9797223 9138833 8458126 8241174 8259511 8348539 8618705 
1177.841 8931214 9051842 9053668 8963346 9170338 9507052 9673033 10071072 
1181.698 10294334 10348963 10484818 11264288 12372962 12894980 13587569 
1185.073 14498310 14743536 15351680 17283490 19197646 19131506 19290504 
1188.449 20385122 21759578 23071616 24276088 25201964 26435994 28102040 
1191.824 29734408 31030798 32618862 34120600 35369164 36420224 37430808 
1195.199 38414508 39355276 40222572 40971252 41551320 42429236 43220416 
1198.574 43001928 42517508 42268912 41898748 41497472 40910776 40328980 
1201.950 40009728 40171144 40504956 40623292 40657712 40766740 40920640 
1205.325 40888528 40242568 39178424 37726236 35946796 34395848 33034936 
1208.700 31454076 29769680 28061250 26366100 25061530 24062650 23344704 
1212.075 23157618 21306556 19153458 18212284 17499556 16684653 16079284 
1215.451 15529457 14865207 14410308 13981001 13486763 13313818 13372142 
1218.826 12705243 11898598 11612907 11504631 11264254 10882244 10650427 
1222.201 10599733 10595726 10453931 10317848 10344620 11047902 11685436 
1225.576 10774318 9853857 9592643 9415585 9240055 9171792 9075085 9136193 
1229.434 9233287 9197885 9278880 9248652 9282907 9321057 9400687 9551793 
1233.291 9860940 9995218 9977148 10130557 10441272 10719365 10629307 
1236.667 10709890 10829926 11065338 11330126 11476665 11771662 11987046 
1240.042 11993689 12194291 12359326 12628963 13098252 13537899 13911853 
1243.417 14524451 16207553 16698496 16391532 17020218 17659374 18394590 
1246.792 19232938 20314182 21347066 22203760 23194280 24472316 25881486 
1250.167 27386534 29121002 31018198 33036828 34989064 36763708 38478440 
1253.543 40156752 41719908 43282236 44349196 45138188 45630284 45810848 
1256.918 45793064 45323000 44834964 44727736 44695344 44657516 47952792 
1260.293 52339280 48698508 45668856 46823184 48374120 49574964 50420028 
1263.668 50567152 50198368 49562628 48618528 47431600 46472496 44727480 
1267.044 42536656 41141768 40866800 39591896 37119744 37784824 38799140 
1270.419 35895112 34122428 38193864 39938016 35551048 33716592 33797816 
1273.794 34244380 34599752 35109860 35612260 36691988 37679976 38793128 
1277.169 39778212 40845176 41893892 42872952 43829632 45483308 46746576 
1280.545 46585096 46503212 46304040 46521028 46762220 46002100 45416940 
1283.920 45264560 44939348 44075600 43272428 42643712 42499972 43768204 
1287.295 46530320 46453724 45720576 44123572 42963516 42945372 43902904 
1290.670 43116772 39966860 37656128 35641352 32951176 30585498 28693618 
1294.046 26379338 24025596 22049198 20474552 20119928 20614134 18864098 
1297.421 16057381 14249731 13687304 13296769 12722201 11628563 11073223 
1300.796 11165244 11199106 10705033 10546906 10653381 10181095 9075491 
1304.171 9376513 9889820 9449041 7650251 6947058 9381185 10823810 12760006 
1308.029 15880488 14649041 12654070 12683477 12918327 13056662 12723155 
1311.404 12613545 17139598 25383890 24194490 22837080 21463150 20322410 
1314.779 21977988 17987714 16915408 18926080 27521470 27197132 20763944 
1318.155 22428884 35866284 37546072 28274612 27585158 26157262 24870404 
1321.530 23189386 23873854 24838582 27424964 28852758 29297526 30501320 
1324.905 32143354 33652288 35746860 37170128 38075424 39365100 41822636 
1328.280 43274700 44956912 47032120 49422524 50033372 50590492 51722268 
1331.656 52937660 53860788 56228196 59474916 62118992 63327172 64344756 
1335.031 65282004 66984332 72847704 88803288 88903912 79579152 89812208 
1338.406 108845432 113679584 110395552 117463288 129925488 106237216 
1341.299 88625768 84470544 84185200 84116256 84125112 84470136 84148952 
1344.674 83543736 83092704 82921496 82733728 80945704 79005056 78373296 
1348.050 78319088 78770824 82266000 80412072 72639608 68453640 66961788 
1351.425 66723144 64686804 61345540 58568872 55680588 53245552 56658268 
1354.800 61890324 53354524 44320980 41083852 38150268 35429880 35234464 
1358.175 32717958 27179530 23895734 21571398 21002788 31916350 44332060 
1361.551 27959890 26920626 50676872 77540552 48127148 21367600 14531303 
1364.926 13072198 12816243 12780104 12715478 12703299 13353555 16868626 
1368.301 32431920 34898536 19331656 15172636 13807039 13587194 13459045 
1371.676 15166976 17639806 18621966 30406746 61979744 50258292 42621116 
1375.052 55758188 33415794 17766262 15565173 15465073 19598900 26827498 
1378.427 22105188 18217780 22445074 21580484 17240808 16090013 16137190 
1381.802 16925090 16929566 16147610 16225096 16203392 16218148 16325474 
1385.177 16887676 19794204 32815326 43461392 57434948 70134272 37269252 
1388.552 22012528 17958670 17399356 17744516 19955838 20519116 18259002 
1391.928 16762648 17047752 17840480 22637856 41746392 80726072 61523976 
1395.303 51136668 60325780 35419524 20964988 30009164 44657044 36530316 
1398.678 51164964 84232336 47397524 23194664 16929944 15290962 14299996 
1402.053 13935836 14098351 14776376 15652757 19250118 40256016 69152552 
1405.429 38948472 18152512 13928344 12904332 12052960 11567545 11435841 
1408.804 11145798 12754239 17718284 15582104 12267155 17960260 23288520 
1412.179 17967648 11264356 9605447 9456828 9744662 10284088 10971232 
1415.554 17616720 27651540 23379318 38269340 51767400 31489770 46495284 
1418.930 113112760 145448752 58809640 27076400 14721598 11241029 9655382 
1422.305 9334531 12822692 34525984 73983128 52425364 17933288 9091190 
1425.680 7899468 7749712 7615788 7379945 8954315 14073195 13576733 16679490 
1429.538 43904588 61218788 26493324 11522494 11342778 14425208 12910544 
1432.913 20685608 22878012 13116181 10301086 13471486 27126552 49753344 
1436.288 86043384 136753760 62281452 29356618 16029911 11972638 10000847 
1439.663 9117006 9071600 9259449 9424795 9000183 8442381 8513943 8551519 
1443.521 8698679 9039087 10262850 12387757 11978293 12522786 15587289 
1446.896 19318700 39679924 75397112 46582620 20538570 14266303 13456721 
1450.271 13796058 14130013 17809274 34714624 40121060 22036684 17936018 
1453.646 19527602 29098042 46346284 70522336 75590176 87363728 146012080 
1457.022 156115280 115045928 122070568 116593200 105903504 82465552 47162812 
1460.397 37465808 36606080 37397332 38007720 39894896 41214736 44472956 
1463.772 53314176 79684392 132708000 106183136 65240420 51075468 48561460 
1467.147 48388900 48614676 48293456 49223008 51182744 53689068 57493680 
1470.523 64172104 86048672 138419408 190317232 142496848 137336016 166532288 
1473.898 123893504 90596672 76690864 82601832 120812504 160173168 100741720 
1477.273 75086824 69178624 67920632 66402780 65665408 64937108 65783864 
1480.648 75155128 94204464 80704568 63417160 58605688 57176112 56247124 
1484.024 56404768 56742648 57469924 60690884 72638776 79995192 102209200 
1487.399 124109024 82886448 69451784 95566896 134975072 137391008 123738568 
1490.774 122218456 76144216 45624248 34908372 31147366 28383508 26264466 
1494.149 25241010 26817064 36317072 64686456 119998832 89867104 47030684 
1497.525 31860686 41953304 82133152 88207256 41367232 24763158 21880616 
1500.900 20634286 29993362 38258848 23568146 16878548 17560518 21432342 
1504.275 31364564 58428636 111424480 179831488 177381568 226638720 234775024 
1507.650 152449216 131053912 100253408 71455576 85884336 67866088 41290084 
1511.026 25966884 30629478 65214084 66780836 30229880 17784072 17894308 
1514.401 32606862 60293760 49804924 52368400 99439536 140779760 154329024 
1517.776 95029224 41945716 26896198 33495028 62923424 117871896 138196528 
1521.151 165035600 121182880 108690328 121246616 75056728 45401452 35755964 
1524.527 54108492 97940304 111076712 57781960 37660608 57376100 70127152 
1527.902 52278652 67008108 51241984 24176170 17298730 16914616 22618308 
1531.277 45203628 57720228 43461792 66307308 132894144 161973472 90867272 
1534.652 51145616 45481844 45698120 35503548 35880356 39661736 54462996 
1538.028 95227800 169639056 232969184 227136352 226950160 178552096 
1540.921 122883480 125118896 173188736 151922352 118889104 122478528 
1543.814 105104816 101477752 136033376 163759088 108514480 76353968 67236240 
1547.189 65558464 65426744 65226980 67678592 86503952 134250672 153112496 
1550.564 100711768 70393000 64331964 64598248 65308540 70331368 89521304 
1553.939 134473568 168768048 113793640 87621864 82510864 86472864 108570040 
1557.315 167784864 278097984 304129536 248010064 233205600 299817376 
1560.208 246186304 121772672 74706976 50199748 40757088 35455012 33264994 
1563.583 32348878 40642576 72546592 79279896 43043852 30513868 26340080 
1566.958 25229632 25322664 30128332 50780060 100976280 143798160 130830008 
1570.333 66077700 37946064 27475296 24076868 22772164 23773536 24077044 
1573.709 24252682 26921402 35725924 59935792 108088704 184740944 118518848 
1577.084 75475800 52905772 35415824 26246374 22858104 21308226 20182436 
1580.459 19571482 19101104 18547890 18338768 18974954 19067936 19081508 
1583.834 18551106 18535062 18849082 19209354 19381162 19806412 20362726 
1587.210 20811666 21187834 21357506 21768948 24956974 30299082 30077194 
1590.585 27205140 28945682 33625684 33259950 31221482 31985856 33889228 
1593.960 43939452 56322184 46524640 38384608 43423088 44979288 37724244 
1597.335 34253664 33541128 33260912 33481464 34378672 35469968 37139016 
1600.711 43462344 51036636 48355976 46778200 54513708 63503436 55756048 
1604.086 45129804 41667828 39588524 37547840 36605468 42016588 52777156 
1607.461 45725804 32108926 30484970 42862676 61077160 46314068 32765516 
1610.836 30522576 30889500 31573218 32623864 33028570 34590564 35959648 
1614.212 38401692 42094740 50797492 72838224 118623072 199527520 139981248 
1617.587 86858448 61496688 52940132 50788960 50726064 52332884 56625652 
1620.962 58968520 59376208 67551296 91382352 118671752 153258800 126878008 
1624.337 86594304 72975232 70177856 69701272 69057016 73047592 93634888 
1627.713 134211856 106761752 76190928 66560284 62569908 60301452 58924612 
1631.088 57855844 57710696 58025396 58399676 59664828 63537956 75595376 
1634.463 109638680 198271760 303493312 158917536 102456512 90986560 
1637.356 117749248 94374816 59307380 44179800 38922448 40158712 44190772 
1640.731 35043584 27591548 27673186 33710900 30804622 24461168 23403376 
1644.107 25731272 32080170 53071788 98800952 144482496 96432120 97301920 
1647.482 122024048 118284808 85698512 42230420 27871554 24820690 25886234 
1650.857 33520296 55572836 99596376 200282640 393931616 268276816 179781680 
1654.232 176174128 107282888 51027396 28392744 22902600 20867462 18845170 
1657.608 13423639 10791947 9383385 9399773 8951643 9898837 11525760 20386580 
1661.465 27989432 36028184 72232264 95867176 44096576 19968606 12601470 
1664.840 10716308 9635157 9359990 9290117 9983522 12716537 28672698 62847636 
1668.698 87509488 125205624 86047216 41810048 32735538 59747552 75497920 
1672.073 37418928 21489226 15304209 15479187 22842110 46929852 101166664 
1675.448 128528136 55708844 26511074 16283263 14628170 13929404 12306932 
1678.823 14121353 28664880 58301516 73302328 48209220 23730840 22005522 
1682.199 33748252 63115424 130681696 176898688 216157152 254409216 146853216 
1685.574 75579616 39367932 24410170 19189474 25499440 48496436 54163968 
1688.949 27753146 26527768 50842860 44986600 18485306 13064685 12684296 
1692.324 13976862 13142784 15866019 18632410 27708186 49479928 99957920 
1695.700 203319632 128950704 75423168 66523680 61332876 40185640 43045424 
1699.075 75114120 138791792 330789856 405136480 146382560 65976596 33349958 
1702.450 27012258 24918370 24151860 43905872 82003072 53706500 32327856 
1705.825 53205664 93469792 64319672 37793972 19938112 12434502 10721946 
1709.201 12096499 26281082 44134980 27202282 13208874 11846941 12834535 
1712.576 17663790 21734356 35996288 62807508 65432056 86011472 73418456 
1715.951 45119068 48111156 84028800 145706608 120979576 128538680 94169224 
1719.326 39820156 18721688 12760961 11248441 13253998 12114454 9852873 
1722.702 13440146 31096424 32321860 14004545 8037900 7392078 7402627 8068381 
1726.559 9179373 8993080 8366374 7855166 8352389 13763771 40293388 86835544 
1730.417 54197824 20685886 16693950 27702252 36946004 57925808 115361672 
1733.792 134905968 148078896 118454640 58614640 27487898 16131379 12739329 
1737.167 18984058 23921044 17922930 19663934 44318264 95589152 84851816 
1740.542 36716760 17385596 12534552 12659426 25935122 62408248 72774824 
1743.917 41684716 29405932 22393158 21871972 30618952 29528198 45764828 
1747.293 57492736 47818384 59481984 83851000 67092828 38113372 26671634 
1750.668 55404204 119034848 70112704 28304142 19872030 15108992 9696851 
1754.043 8146632 7714566 7955044 9791190 18591254 48788624 60902408 25778980 
1757.901 14094826 18652922 15964320 9250277 8598393 11232596 21595040 
1761.276 48614860 88795608 52044616 21215842 10712572 8356003 7826591 
1764.651 7129949 7174985 7086063 6836034 7887793 11893933 28671956 65987164 
1768.509 42974380 15937680 10203177 13885612 27243380 61003408 84127040 
1771.884 69426752 97073608 106762688 49798976 22357398 13640768 14815527 
1775.259 35305292 44453756 19103044 8416031 7026590 7049422 8741951 14437607 
1779.116 18490354 14404211 26457192 57620028 36482884 14299004 10931985 
1782.492 7061579 5721847 6903224 9838603 20180840 36334724 19397482 7455343 
1786.349 5363665 5363800 5289469 6374906 7735882 7833372 7697500 11465166 
1790.207 20230860 47418036 50589380 34734076 57032584 105194256 58698000 
1793.582 23877880 11725126 10751834 15121377 28932792 41809356 26263022 
1796.957 13305140 8227026 6939887 9406341 20287342 52303136 48826592 
1800.332 18465392 16827052 26408068 23785226 33117998 27268714 9767535 
1803.708 6453526 6320841 8547363 10043707 7786310 5650409 6188702 10960290 
1807.565 22225906 17434778 8957901 7329598 8411639 20256272 48762268 
1810.940 37254056 14971237 18373366 20553960 9916091 5292185 4800193 4876150 
1814.798 4869884 5087906 5440660 5236378 6663462 14276644 13843980 6297006 
1818.655 4909693 4756140 4679401 4499715 4705962 4949706 5581566 6908476 
1822.512 12525652 12092035 7237208 8403802 19714692 56075852 61373016 
1825.888 22428324 9179813 7002649 6464859 6988742 13108258 37708492 62940316 
1829.745 72694792 71637824 29224546 11496772 6745600 5850889 6289375 
1833.120 10072158 8228308 5520856 5324821 5437942 5152076 5941070 10767288 
1836.978 25202242 21832182 8834627 5629396 5558207 5325559 5089012 5081034 
1840.835 5440425 7114624 14749020 17517082 13656052 24912160 56332824 
1844.210 97379160 52424208 28133042 19402472 11406688 7561873 13355331 
1847.586 31926762 26818792 11202131 7197623 4863048 4290822 4058517 4299255 
1851.443 4119057 4659105 5041511 4394235 3665748 3705947 3799127 3873872 
1855.301 3930474 4221224 4138658 3720752 3546005 4385666 8525737 9578179 
1859.158 5871510 5246573 4661884 5115095 7370206 7983730 4837383 3498304 
1863.015 3835294 4330879 4881980 4596614 4293934 5812102 16372504 27486168 
1866.873 18497994 27125072 51747952 38700316 42075140 67509216 36584852 
1870.248 16177014 14917670 9975690 5109563 4325223 4207106 4129761 3813500 
1874.105 3682021 3888080 3989859 3737395 3968458 4335531 4048483 3838570 
1877.963 3825066 3713433 4753259 5634934 4473033 3596818 3425761 3438185 
1881.820 3531574 3634706 3625485 3662941 4620357 9129222 10654910 6936318 
1885.678 4892736 3975380 3766973 3930976 4245783 4872699 8446098 26984614 
1889.535 52035800 27110788 8460085 5120727 4439323 4234340 4358556 4371877 
1893.393 4672167 5231381 7923189 22082178 27420836 11325432 4928694 4372011 
1897.250 4887408 4643632 4417966 3946289 3964981 3920477 4119157 4119658 
1901.107 4464831 4993712 4764850 3832888 4038751 4563731 6697479 7282457 
1904.965 5234064 4136150 4102700 3860800 4521075 9330604 17370422 12133807 
1908.822 6048775 11085222 26135794 21185398 7445062 4683353 4158629 4139060 
1912.680 3769379 3806547 3644563 4103402 4411305 4620491 4462320 4733160 
1916.537 5351388 9041219 25977122 50340660 26558238 9068454 5549079 5047779 
1920.395 4409766 4532593 5405969 13724613 26485578 35948128 33151038 
1923.770 12997355 5412243 4573040 4513542 4299656 4397616 4154715 4189140 
1927.627 4244679 4373851 4290520 4457834 4394402 4212391 4134344 4271715 
1931.485 4368664 4465132 4870923 6642669 6374805 4586166 4296845 4432327 
1935.342 4294804 4119759 4142104 4214667 4409096 4266361 4153612 4121398 
1939.199 4290153 4286037 4370505 4463559 6342527 11239771 30338164 54092204 
1943.057 26590750 7408593 4779959 5131725 9155177 11278570 10867736 11320365 
1946.914 6711780 4140465 3793277 3881428 4102532 4240864 3971234 3872401 
1950.772 3986649 4022999 3991631 4110092 4107383 4154280 4274492 4875848 
1954.629 7915564 9320415 6069472 4783443 4532559 4362405 4632212 4669420 
1958.487 4344065 4292093 4455458 4534267 4854437 6597923 6683482 4695277 
1962.344 4082297 3951940 4150232 4136685 4303437 4306014 4847334 8380594 
1966.201 13574853 13150093 22337306 21848036 8019708 4303872 3865247 3963175 
1970.059 3739534 3841010 3605404 3719983 3476460 3446167 3292697 3454015 
1973.916 3356502 3458758 3209106 3244423 3497302 3658864 3242587 3177062 
1977.774 3125063 3212210 3190514 3362079 3213745 3249631 3299975 3366253 
1981.631 3190113 3239282 3200360 3311393 3260347 3430169 3407827 3474623 
1985.489 3379710 3441859 3407995 3571895 4013468 9164550 14558850 8675558 
1989.346 4052630 3752535 3698261 4276533 11103849 27462096 25652916 13890060 
1993.203 7348166 4553553 3681553 3481236 3448204 3507991 3587530 3521018 
1997.061 3454583 3464236 3638014 4887509 5616843 4255152 3520283 3481604 
2000.918 3366119 3306185 3371462 3451110 3446735 3524426 3513636 3530371 
2004.776 3572630 3571528 3560904 3455786 3449740 4252274 5057601 4273756 
2008.633 3709089 4165387 4111999 3541027 3416076 3439420 3401082 3391899 
2012.490 3475157 3533578 3557998 3509862 3549880 3606774 3645766 4384763 
2016.348 11749057 18901198 10010070 6071286 8482959 7807462 5787388 4191515 
2020.205 3575203 3489219 3382715 3415609 3513903 4424694 4902857 4093569 
2024.063 3572463 3527832 3552920 3511398 3715772 4303304 4184991 3632935 
2027.920 3452713 3492726 3398544 3331827 3244590 3250332 3295535 3251767 
2031.778 3216216 3311994 3352863 3494330 3629059 3570492 3294199 3272298 
2035.635 3350492 3343814 3247427 3550548 3774760 3597185 3397976 3356936 
2039.492 3298038 3364817 4078283 8607113 11106093 6068867 3500976 3294800 
2043.350 3811494 4965894 4596413 3521553 3424058 3472418 3743477 3735891 
2047.207 3545003 3343380 3329256 3329790 3288490 3262116 3346519 3201963 
2051.065 3164512 3282781 3328755 3287555 3427564 3387557 3314165 3392566 
2054.922 3408529 3185206 3240116 3304883 3275603 3365351 3528868 3523724 
2058.780 3677342 3637279 3765335 4584325 4679870 3566416 3318672 3373966 
2062.637 3530772 3417178 3659566 4652708 9891447 10882753 6914402 5378291 
2066.494 3839339 3431238 3217785 3389394 3443228 3398243 3305283 3523590 
2070.352 3488751 3526663 3512233 3634372 3621542 3630830 3540627 3827840 
2074.209 4254282 4022565 3637145 3649341 3775195 3778537 3170721 2933109 
2078.067 3247895 3706984 3657561 3552920 3536084 3541495 3567853 3790269 
2081.924 3730711 3545303 3583087 3643427 3662005 3694485 3701837 3787796 
2085.781 3737495 3574267 3717945 4369065 4216440 3779540 3730377 3910146 
2089.639 6021023 7690856 5151104 3575203 3470848 3592809 3662239 3756378 
2093.496 3789300 3695554 3525561 3255005 3155835 3255439 3468110 3619938 
2097.354 3699966 3717477 3618034 3481536 3222558 3340442 3583220 3591172 
2101.211 3450575 3464002 3530438 3565915 3435012 3313430 3383684 3511231 
2105.069 3595749 3652515 3884636 3878351 3658630 3470147 3413304 3477963 
2108.926 3532209 3583354 3604335 3552820 3494463 3403586 3268459 3374033 
2112.783 3540760 3695086 3697827 3991364 4845993 4799590 3575971 3293465 
2116.641 3457756 3653150 3619236 3592208 3636644 3730176 3612588 3451277 
2120.498 3582385 3761993 3710091 3649809 3745015 3829645 3672832 3527933 
2124.356 3722556 3886709 3800263 3665146 3697426 3815472 3763196 3584056 
2128.213 3617298 3764700 3788564 3706182 3743678 3830581 3793812 3578844 
2132.071 3648038 3742107 3713066 3726433 3687033 3714503 3772955 3956655 
2135.928 4941965 4842040 4079755 3983773 3755309 3668989 3860867 4220555 
2139.785 4036477 3820118 3722423 3726366 3677877 3691310 3680985 3774293 
2143.643 3773323 3749827 3722490 3930809 4026945 3846526 3706148 3775128 
2147.500 3875543 3798124 3700400 3702272 3742976 3786358 3726767 3605772 
2151.358 3636644 3790403 3911249 3890220 3772153 3827305 3799327 3690174 
2155.215 3668989 3748290 3796486 3803907 3727503 3732883 3586728 3485511 
2159.073 3715539 3836665 3784621 3826135 3896672 4193355 3882229 3678813 
2162.930 3874206 3942243 3853313 3790770 3834927 3865548 3620706 3711194 
2166.787 3793779 3774526 3721989 3719615 3627990 3368991 3501110 3748257 
2170.645 3680717 3692012 3699164 3766071 3615795 3395471 3658262 3838035 
2174.502 3681854 3613924 3693616 3672698 3377773 3584791 3749961 3753537 
2178.360 3670225 3681486 3724662 3574969 3614358 3670559 3754740 3747488 
2182.217 3768343 3816742 3650611 3566517 3615728 3771251 3772621 3759520 
2186.074 3890554 3907572 3805912 3722623 3856756 3771452 3803372 3822057 
2189.932 3794781 3688537 3680350 3637079 3695387 3765135 3785155 3972137 
2193.789 3744213 3783752 3675037 3799227 3753805 3928434 3755342 3538021 
2197.647 3521853 3666650 3775596 3674268 3619103 3430337 3623045 3626019 
2201.504 3612220 3448371 3578209 3642491 3590370 3306385 3379376 3686231 
2205.362 3770382 3448304 3465705 3556628 3711461 3618869 3599858 3732114 
2209.219 3876880 3758751 3764934 3910614 3894867 3773156 3982368 4105276 
2213.076 3931377 3827539 3925793 4070992 4016445 3830514 3706984 3875276 
2216.934 3963576 3872835 3957491 3957791 3770582 3906802 4049052 3916231 
2220.791 3790537 3917836 4145683 3994106 3756746 4022665 4359293 4259267 
2224.649 3847730 3917702 4035540 3922583 3591572 3641288 3842582 3823695 
2228.506 3722322 3562842 3550281 3432340 3510028 3676039 3438485 3433042 
2232.364 3591874 3973608 3228099 2983350 3051882 4053533 3929739 3236511 
2236.221 3300042 4362305 4579536 3329156 3213946 4331214 5265253 3637112 
2240.078 3067031 4056643 5459852 4787497 3181134 3807517 5170015 5153217 
2243.936 3337737 4001998 5139336 5160694 3342879 4080792 5185104 5404124 
2247.793 3630463 3955150 5106646 5973184 4407523 3549346 4708876 6091077 
2251.651 5333542 3075740 4330946 6448246 5871309 2254792 4146820 6541040 
2255.508 5020393 1945884 3961202 5515889 3379142 1603107 3773791 5349241 
2259.365 3408829 1770053 3783217 5000785 2439050 1120423 3708654 5911948 
2263.223 1710173 1205407 4167428 5988670 910625 2051603 4841537 5294499 
2267.080 2286401 3615294 4883890 2661422 1619835 3696958 5724063 2836680 
2270.938 3349023 5361921 5707948 2680325 4176193 7123280 5085760 4313209 
2274.795 7706842 8315101 1562070 4218983 9366423 9020244 6032647 6518403 
2278.653 6971974 5016873 7620509 10040858 7213456 7876185 7854997 10866751 
2282.510 11457103 9869210 10557871 12847640 15632834 11721789 12998618 
2285.885 13183085 12514635 15882757 14610112 13603502 15774028 15503634 
2289.260 10626488 13425075 12627291 7093237 11609981 29262186 13575946 
2292.636 8846396 19040932 72233440 49423640 12545773 25885426 55435976 
2296.011 80329464 15577433 43358096 106359616 75266352 42195440 51572812 
2299.386 63743160 96971616 137889952 183751168 187560992 151038080 129228232 
2302.761 230168048 243318320 128494888 106253384 190591648 163673840 
2305.655 130140768 197820368 179396176 85079920 76600336 94951296 65490888 
2309.030 23049568 47444572 94040712 85900408 87958520 96830872 81676832 
2312.405 75232272 99876688 129581336 122224336 97078584 73283624 72575800 
2315.780 124480808 147862720 108916872 90058760 145303376 120523384 92308352 
2319.156 72131056 74975368 80030568 51036452 43691544 72311080 79999576 
2322.531 48848096 18617678 32574896 85935544 88411592 31918310 10620004 
2325.906 50371652 30372060 -18128906 -38760984 -8473909 -6509774 -16847102 
2329.281 -14724387 1339429 -76328016 -87226744 -652174 15262372 -50417140 
2332.656 -71837656 -40492368 -45933308 -54292552 -46274876 -46438596 
2335.550 -78462240 -124080168 -102521704 -120906296 -169342928 -185513408 
2338.443 -141993456 -167836160 -196254224 -209008528 -201962368 -232265744 
2341.336 -215230528 -211403904 -209812816 -218781648 -218340848 -206879920 
2344.229 -206882768 -264907296 -291466816 -291897888 -316604736 -425716544 
2347.122 -389498944 -383612544 -368056000 -479520608 -444882432 -490863296 
2350.015 -461644864 -490162144 -467808160 -513862240 -466924384 -473807744 
2352.908 -395434176 -429235136 -346871968 -302439520 -267402384 -286331520 
2355.801 -245544896 -213435568 -188751296 -220783056 -202618944 -220446720 
2358.694 -240959744 -245268112 -205007056 -198184528 -196070736 -238191552 
2361.587 -233378160 -222039536 -203619040 -231688848 -233346688 -238879504 
2364.480 -207153792 -242300352 -251093360 -262519088 -253134752 -279734976 
2367.373 -304878048 -319524320 -306275456 -330181792 -311061280 -307463040 
2370.266 -294432000 -296841280 -283544800 -280964064 -255577776 -248041248 
2373.159 -220155216 -186536592 -153804352 -146739088 -122579720 -84973856 
2376.052 -51356984 -37994440 -18104628 15859764 42285788 61958040 81202056 
2379.428 104967288 118391240 122355272 144372704 156977216 139832144 
2382.321 110130104 82783720 58467416 42345908 32123088 24547794 19963644 
2385.696 17489208 15311897 13132710 11459995 10513196 9638240 8840715 
2389.071 8177930 7508133 6860068 6387111 5934822 5548911 5174944 4913748 
2392.929 4761868 4591558 4450102 4430686 4333289 4123439 3958160 3849201 
2396.786 3711929 3570492 3425026 3324749 3172857 3075507 2979814 2840416 
2400.644 2749642 2692194 2578086 2517993 2442415 2369815 2293563 2249230 
2404.501 2206567 2166905 2178161 2178560 2153319 2188184 2214893 2304555 
2408.358 2383941 2473471 2512161 2503563 2576253 2726069 2774885 2826041 
2412.216 2902821 2905823 2887810 2942850 3055352 2999464 2962733 2998831 
2416.073 3004936 3006004 2940348 2915630 2948755 2947954 2969538 2929974 
2419.931 2897450 2991291 3034464 3060658 3094228 3079411 3079178 3123595 
2423.788 3150461 3212444 3207203 3168184 3173324 3210508 3220856 3178564 
2427.646 3183337 3223326 3264753 3296035 3235176 3211142 3278241 3290793 
2431.503 3266523 3193851 3138647 3150795 3139248 3126799 3127433 3140482 
2435.360 3145789 3133107 3090390 3122661 3105374 3100068 3066297 3055586 
2439.218 3055819 3100101 3118756 3163745 3121125 3076375 3105207 3145789 
2443.075 3165180 3128601 3052716 3108044 3199559 3235443 3143987 3146690 
2446.933 3134842 3150695 3247828 3283850 3295101 3261749 3242120 3255239 
2450.790 3231771 3282047 3340275 3268225 3212744 3311260 3372898 3340575 
2454.647 3294900 3295501 3315700 3365518 3379443 3401950 3403920 3466440 
2458.505 3433376 3324515 3317704 3363782 3360276 3256007 3252435 3324715 
2462.362 3337002 3252735 3140249 3177730 3231738 3227498 3153465 3160874 
2466.220 3188477 3227532 3171055 3157938 3269327 3290861 3208371 3198558 
2470.077 3228466 3155835 3113250 3234675 3288857 3293565 3329390 3297070 
2473.935 3261782 3262917 3274034 3385120 3379176 3383283 3360777 3267625 
2477.792 3307186 3361478 3346819 3342979 3351360 3445766 3412302 3333496 
2481.649 3297571 3369325 3414707 3450575 3510129 3506855 3435079 3405523 
2485.507 3375703 3319507 3376271 3426963 3387424 3361811 3332595 3391297 
2489.364 3426529 3351227 3398444 3422655 3389360 3368256 3348188 3299174 
2493.222 3298506 3344081 3375169 3336001 3312996 3291161 3258945 3274301 
2497.079 3320341 3321510 3265187 3233908 3244156 3310425 3349423 3353063 
2500.937 3308322 3294065 3289659 3311026 3350626 3325116 3317704 3320809 
2504.794 3325350 3393668 3361845 3259679 3311994 3378775 3353397 3330558 
2508.651 3414540 3438953 3329456 3313864 3373499 3424659 3405189 3327921 
2512.509 3338104 3366019 3403219 3385554 3341610 3343747 3363247 3370293 
2516.366 3328121 3343847 3377205 3416477 3381179 3382949 3458958 3471918 
2520.224 3444764 3420317 3442760 3507590 3493160 3475491 3442025 3443729 
2524.081 3496033 3496901 3411334 3366620 3357204 3418614 3433275 3416744 
2527.938 3422889 3438185 3434110 3443228 3454950 3421687 3362079 3376838 
2531.796 3405857 3378374 3384919 3406759 3434645 3406826 3362513 3404622 
2535.653 3403787 3397876 3403319 3401983 3433075 3439120 3399512 3428166 
2539.511 3393735 3406425 3453147 3419149 3401616 3423557 3440590 3473454 
2543.368 3416243 3470214 3528234 3466974 3419783 3412703 3406057 3433743 
2547.226 3438385 3463367 3405289 3428567 3467676 3408362 3402885 3467108 
2551.083 3427431 3372063 3412837 3458023 3442059 3489720 3488217 3429568 
2554.940 3436615 3470749 3438385 3445132 3512133 3544401 3522855 3522555 
2558.798 3579913 3544401 3504484 3534747 3517544 3515340 3574133 3557697 
2562.655 3553889 3616630 3674736 3730310 3672932 3700534 3705112 3620038 
2566.513 3591339 3647136 3710325 3697326 3621274 3607810 3606607 3544335 
2570.370 3501878 3525494 3588900 3598756 3605972 3669256 3683892 3616296 
2574.228 3575269 3574468 3586561 3603199 3642358 3694819 3762728 3750396 
2578.085 3694619 3728104 3759386 3793745 3891323 3927699 3886743 3983372 
2581.942 3976951 3887245 3959029 4031494 3995176 3987050 3994307 4038651 
2585.800 4035775 4029922 4064503 4065507 4061192 4071293 4082297 4071828 
2589.657 4070624 4098720 4055339 4115243 4180642 4168264 4180341 4148393 
2593.515 4146687 4102734 4044303 4087214 4158763 4181880 4194693 4212225 
2597.372 4166022 4077213 4068316 4122301 4085976 4020993 3990294 4030123 
2601.229 4048316 3957256 3882697 3922249 3994942 4018083 3951204 3815104 
2605.087 3850805 3866082 3881093 3904362 3852978 3828107 3843585 3865614 
2608.944 3887946 3902155 3939334 3902623 3895870 3960166 3913857 3897976 
2612.802 3918972 3888916 3813901 3793912 3810190 3903994 3981466 3923185 
2616.659 3862739 3842949 3824798 3836364 3745249 3845456 3933183 3850772 
2620.517 3801232 3805344 3841077 3909544 3966184 3980563 3920343 3884236 
2624.374 3861937 3824898 3821556 3839071 3800430 3768911 3756779 3778704 
2628.231 3784687 3803171 3803338 3840743 3844888 3788598 3771284 3790938 
2632.089 3783250 3792442 3689072 3604937 3620072 3728672 3794548 3794948 
2635.946 3772755 3801667 3829411 3787929 3734822 3776031 3807717 3756077 
2639.804 3738598 3749660 3740503 3760155 3758885 3720752 3753805 3773357 
2643.661 3756579 3799127 3793077 3815372 3858393 3830815 3784453 3801366 
2647.519 3781245 3814804 3875410 3899949 3889116 3871465 3846392 3816073 
2651.376 3819550 3863742 3888682 3867252 3872234 3972705 3996815 3952709 
2655.233 3954782 3959029 3961770 3978624 3983974 4024906 4063433 4047847 
2659.091 3996848 3979861 4037781 4070657 4032330 4021929 3978222 3999256 
2662.948 4081795 4109724 4058952 4040089 4089019 4029922 4035106 4118956 
2666.806 4034236 3990093 4007348 4023301 4014070 3991698 4019087 4024337 
2670.663 3931878 3934888 3963242 3941809 3959764 3982168 3975012 3969361 
2674.521 3930942 3937863 3935590 3896772 3864378 3896973 3957591 3934152 
2678.378 3879923 3892928 3925191 3951338 3925091 3865782 3834325 3809288 
2682.235 3832420 3875242 3782414 3724528 3770482 3753905 3726233 3740236 
2686.093 3782548 3818480 3792241 3766772 3767240 3794882 3838069 3893864 
2689.950 3876546 3797923 3717778 3725230 3711395 3779707 3808152 3825400 
2693.808 3806146 3805344 3771953 3724729 3654320 3635709 3689038 3687033 
2697.665 3709556 3660368 3630663 3652014 3668287 3691077 3699030 3728739 
2701.522 3715940 3676741 3710191 3752133 3734120 3756679 3715572 3682522 
2705.380 3729976 3753404 3768878 3710125 3683057 3735991 3761391 3790403 
2709.237 3798893 3770148 3778571 3790670 3760589 3732749 3748758 3789935 
2713.095 3892126 3950803 3920878 3883901 3892326 3890420 3892961 3885172 
2716.952 3922483 3987083 4018551 4025942 4001028 3920945 3981700 4075307 
2720.810 4011495 3937261 3969261 3993638 3916966 3887779 4009522 4083467 
2724.667 3991163 3916800 3961871 3995644 3862873 3854549 3954247 4018853 
2728.524 4080056 4092030 4038718 4009155 4042597 4062797 4024136 4090057 
2732.382 4131132 4107650 4105342 4118655 4146955 4182114 4197236 4207507 
2736.239 4215637 4189541 4226711 4258631 4258431 4254348 4280783 4286171 
2740.097 4316322 4341120 4258699 4211589 4272819 4292763 4163714 4159600 
2743.954 4252140 4275931 4278909 4266863 4226611 4243976 4250501 4231730 
2747.812 4194559 4179136 4176427 4150333 4141569 4157392 4133975 4123070 
2751.669 4181545 4199812 4116347 4088752 4075440 4086076 4098485 3985044 
2755.526 3909879 3979292 3985211 3923988 3900550 3962072 3923887 3849635 
2759.384 3786058 3745383 3766071 3749092 3730978 3779874 3810692 3781345 
2763.241 3751799 3697660 3762995 3853245 3792041 3694853 3759119 3747688 
2767.099 3703541 3666683 3597586 3618067 3635541 3589501 3552920 3593210 
2770.956 3644697 3640453 3625284 3658262 3668421 3677844 3629160 3619972 
2774.813 3627255 3602798 3610683 3573566 3605672 3752635 3739801 3657594 
2778.671 3609881 3602364 3664210 3647436 3574468 3567586 3626219 3743043 
2782.528 3776298 3743009 3748925 3768444 3743110 3782247 3804241 3852443 
2786.386 3875543 3869760 3844019 3900183 3966686 3919842 3896071 3922684 
2790.243 3858527 3842816 3901186 3976116 3994942 4001496 4009255 3924423 
2794.101 3930307 4033500 4074872 4049085 4051861 4013034 4053332 4111798 
2797.958 4110092 4141736 4147925 4143977 4189474 4184188 4168264 4188303 
2801.815 4176661 4175456 4249430 4241701 4185393 4162142 4218849 4246887 
2805.673 4272016 4239359 4189441 4194425 4245716 4315017 4271548 4233671 
2809.530 4259368 4320705 4276433 4222395 4198072 4212592 4242136 4257929 
2813.388 4264219 4261107 4262346 4255051 4256457 4315585 4333222 4309997 
2817.245 4288546 4261107 4255219 4243909 4230994 4273957 4290186 4289416 
2821.103 4253445 4170740 4142171 4181545 4193456 4161607 4143977 4208945 
2824.960 4257895 4266528 4268937 4285066 4292662 4338710 4330243 4202054 
2828.817 4146051 4199310 4206871 4239124 4293398 4273154 4162042 4083434 
2832.675 4075072 4134577 4152541 4158462 4094572 4067580 4065540 4103536 
2836.532 4117484 4097215 4097683 4167428 4180408 4054503 3981700 4023100 
2840.390 4140365 4174954 4168465 4153812 4084906 4091696 4138893 4201618 
2844.247 4199812 4141870 4086210 4145918 4241734 4274358 4251070 4165253 
2848.104 4137086 4139194 4132905 4144345 4216540 4277236 4286204 4283794 
2851.962 4280047 4248962 4250701 4254315 4270978 4274626 4306784 4356615 
2855.819 4376462 4403004 4407389 4357753 4251772 4184255 4243909 4211723 
2859.677 4150801 4198306 4276065 4258497 4236347 4255620 4280649 4271648 
2863.534 4200950 4237920 4324822 4331381 4271414 4225674 4196935 4225976 
2867.392 4224436 4202957 4217611 4219752 4159031 4117016 4106981 4080357 
2871.249 4090224 4187065 4164751 4097382 4061527 4101228 4131500 4289048 
2875.106 4356381 4344165 4362974 4374521 4336769 4302802 4324320 4393063 
2878.964 4298485 4171576 4178200 4234842 4279177 4306014 4363041 4415724 
2882.821 4448763 4486491 4552247 4663894 4678262 4655856 4705392 4688310 
2886.679 4577326 4522180 4597418 4642460 4649995 4615267 4462487 4347077 
2890.536 4284397 4266361 4201987 4192150 4356214 4465869 4510629 4549668 
2894.394 4620122 4770512 4570127 4398821 4430151 4439892 4298886 4360230 
2898.251 4500150 4551711 4517526 4350524 4210585 4154815 4094806 4026410 
2902.108 3980095 4006646 4140097 4196801 4311134 4404075 4459810 4535271 
2905.966 4443072 4375960 4241734 4057647 4080658 4222462 4261342 4287743 
2909.823 4243173 3991665 3801801 3882731 3928267 3913289 3914492 3974477 
2913.681 4078116 4185426 4218916 4223065 4415523 4611281 4410368 4163781 
2917.538 3943347 3741038 3851173 4002700 4186664 4265558 4197102 4026578 
2921.396 3939401 3924957 3872702 3830380 3940906 4154582 4408326 4558609 
2925.253 4591558 4701942 4921623 4682248 3690408 3620974 3863943 4129426 
2929.110 4261777 4415590 4568185 4579905 4464597 4388444 4418000 4491546 
2932.968 4647818 4850014 4837986 4779992 5126293 5202273 4896523 4642091 
2936.825 4773761 4425933 3769145 3518847 3516375 3839607 4034704 4196466 
2940.683 4220956 4189541 4133875 4217845 4309361 4424929 4397482 4291357 
2944.540 4462287 4868309 5030013 5033298 4842207 4909090 5213037 4254014 
2948.397 2952024 3536986 3950068 4051527 4145215 4226678 4403004 4621797 
2952.255 4613559 4477787 4503565 4675850 4836377 4911301 5063702 5197344 
2956.112 5230911 5209214 5116905 5409022 4808134 1961661 2725468 3910848 
2959.970 4119592 4111062 4278574 4606024 4721403 4585597 4460948 4590788 
2963.827 4797949 4839862 4860669 5148154 5543911 5644836 5238088 4875815 
2967.685 4876854 4962140 3347086 3129903 4049654 4117618 3773791 3686933 
2971.542 3900250 4230392 4622534 5204352 5389429 4958085 5075100 5372723 
2975.399 5060316 4579871 4420812 4335464 4418602 4903929 5057668 3327186 
2979.257 2071246 3247060 4111865 4069085 3800832 3800798 4032598 4261342 
2983.114 4128690 4218314 4528976 4667478 4582349 4637302 4552146 4275262 
2986.972 4463124 5290206 5189463 4772186 2970272 2384241 3517076 4003001 
2990.829 3949934 4017481 4437850 4818252 4854873 4826996 5370844 6250985 
2994.687 6317042 5686932 5478877 4990796 4527202 4389248 4590352 4614262 
2998.544 4316188 3628157 3466941 3809689 3757581 3188578 2754878 2704263 
3002.401 2899252 3336535 4039854 4515651 4840130 4909794 4269640 3552753 
3006.259 3031562 2880639 3025656 3225896 3395705 3326385 3518546 4690889 
3010.116 6183963 5828557 4683152 4802538 6847950 8639897 6503132 5327236 
3013.974 5203581 5717852 5892736 6066952 6014740 5351857 2916530 -994264 
3017.831 -3892016 -4177814 -1285971 2032162 3593678 4075172 4494726 4741032 
3021.688 5144331 5858345 5934957 5471462 5484044 5755120 5969488 6442495 
3025.546 7956057 7914652 6448212 5631544 5501728 5693008 5686529 4777680 
3029.403 4640886 5383089 7283636 8476708 8521749 9946568 7582171 4855710 
3033.261 4526834 5779396 7401785 6159295 4811618 5102321 4341320 3512099 
3037.118 3726633 4011729 3707017 2730436 2796260 3310325 3607576 3796152 
3040.976 3738598 3922383 4071928 4035206 4326796 4680238 4612186 4669152 
3044.833 5005377 5070641 4830950 4589984 4886202 4984461 4633585 4470756 
3048.690 6249842 6338627 4928996 4555461 4296845 4177096 4225373 4538251 
3052.548 4981981 5350482 5415598 5612277 5821740 5983228 6388557 8526615 
3056.405 10648729 8738908 6412566 3661871 3845089 5017912 6178586 7097009 
3060.263 6516620 5761533 5768517 5908220 5970295 6140005 6628975 7606413 
3064.120 10663467 11228244 7726809 6462673 6962277 8330537 9092002 4660210 
3067.978 4053868 5145237 5697809 5432809 4954734 5051131 5269982 5483038 
3071.835 5519782 5751561 6048976 5960015 5690054 5624159 5336662 5387014 
3075.692 5920815 6295930 4307587 3888548 6223960 7291419 6628101 7448534 
3079.550 9435461 8361678 7073838 8292303 9062499 8558244 9012768 8669203 
3083.407 7668394 7245091 7097716 7630254 8493434 7499031 4420042 6221103 
3087.265 7500918 7546600 7544409 7750286 7781184 8042659 8341075 8535029 
3091.122 8588998 8720246 8804263 8800543 8804466 9184280 9560090 10280695 
3094.979 10392603 10034416 11767508 10090605 8205584 7705223 7395718 7127390 
3098.837 7382844 8995582 9709591 8576493 9973622 11773943 9522935 8283118 
3102.694 9100292 9415213 8869695 8135794 4651368 4854404 5607947 5634699 
3106.552 5860863 6965374 7179634 6364348 5851058 5710735 5906137 6078275 
3110.409 5977685 5586064 5419993 6094841 6836001 7124021 5559281 3035065 
3114.267 4391859 5313048 5786380 8683501 8351173 5343606 4315953 4784381 
3118.124 6030464 7259546 7780509 5835542 4786726 4776810 4737817 5499748 
3121.981 7541307 9068352 6057846 4323617 4109858 4085173 4452478 4770377 
3125.839 5271592 6183190 6648624 5362190 4315150 4157893 4163614 4381215 
3129.696 4510093 4534735 5038527 5242146 3874942 3797389 6727125 9841315 
3133.554 7415469 4526901 3923887 3967187 3923319 3765703 3763196 3954515 
3137.411 4115076 4203626 4407891 4568252 4768602 5107116 4298585 3390796 
3141.269 3633670 4131266 4599996 4965727 4441967 3907605 3851374 3807784 
3145.126 3729240 3755676 3924723 4039487 4149095 4389717 4552615 4648354 
3148.983 4365551 3848064 3799361 4072630 4408929 4711924 4621429 4323818 
3152.841 4075674 3962506 3996112 4121231 4138692 4176025 4376697 4531253 
3156.698 4669487 4864456 4646378 4191247 4101730 4318831 4460512 4513575 
3160.556 4563933 4480699 4299790 4290587 4237318 4241801 4468078 4568888 
3164.413 4625648 4652071 4829610 5098868 4901918 4591792 4654684 4943975 
3168.271 4972697 4870990 5141146 5288194 5052305 4791382 4677358 4617075 
3172.128 4782840 5006248 5119822 5074295 5050695 5200227 5285041 5174307 
3175.985 5178297 5160493 5289569 6609328 10210369 10262205 6666187 5421636 
3179.843 5168674 4994617 4940155 5176151 5376614 5584117 5587003 5543374 
3183.700 5486360 5835844 7075454 8305070 7220868 5818886 5532265 5580660 
3187.558 5605195 5631846 5568746 5533071 5572572 5735881 5900596 6150658 
3191.415 6198583 6131939 5993609 6074848 6135602 6159228 6198516 6320236 
3195.272 6547095 7443445 7913369 7344020 7977014 10799658 10504879 7593904 
3199.130 7042956 7597141 7587801 7053766 6861986 6857510 7003726 7035581 
3202.987 7063937 7058111 7096639 7168316 7197488 7171550 7316590 7469265 
3206.845 7591476 7625465 7634874 7832258 8320370 10200667 12497823 10767220 
3210.702 8709564 8497083 8631109 8709362 8794559 9161911 11292479 14450453 
3214.560 12679383 9857992 9492997 9855042 10476604 10297218 10067850 
3217.935 10208435 10637524 12543283 14874430 13747116 12651511 12166620 
3221.310 11747219 12430956 12718754 12244763 12177593 12326157 12535472 
3224.685 12776146 13161432 13642888 13914316 14246479 15804164 16993582 
3228.061 15978655 15453709 15996736 17439434 18667484 18022732 17530052 
3231.436 17639014 18197014 19310940 20605620 20499386 19759352 19850040 
3234.811 20206108 20646100 21324686 22953074 24164468 23132594 22532518 
3238.186 22846232 23270342 23658162 24623252 25740834 25312936 24858406 
3241.562 25269700 25600122 25719740 25947152 26119818 26584794 29217068 
3244.937 32822438 30910776 27543428 26725262 26616782 26654160 26524986 
3248.312 26408000 26386556 26487020 26385886 26297202 26249366 26363882 
3251.687 26402718 26298682 26248908 26563414 28357406 31100448 29324146 
3255.063 26571268 26244966 26480646 26644508 27667962 27745624 26372156 
3258.438 25842382 25607012 25507734 26034602 27048756 26419338 25374264 
3261.813 25088842 25003896 25058088 25152068 24978346 24852090 25332674 
3265.188 25553030 24775716 24373228 24076868 23681780 23518472 23371206 
3268.563 23243426 23068052 22930962 22989406 23061448 22791720 22470718 
3271.939 22280904 21997854 22662292 25753244 26793662 23187290 21086882 
3275.314 20946176 22038636 24807744 24130456 20827970 19702486 19445992 
3278.689 19569124 19677906 19987826 20282380 19506636 18731202 18583474 
3282.064 18515042 19049796 19794932 19368448 18907912 18545056 18029674 
3285.440 17750832 17512320 17490588 17370248 17283146 17483308 18558886 
3288.815 18719578 17543024 16691471 16555382 17232498 18870710 18455538 
3292.190 17664308 18328156 17399252 16072923 15942870 15643550 15126147 
3295.565 14987940 14977616 15077156 15708819 16435612 15878771 14734006 
3298.941 14129055 13900597 13944834 13953286 13709225 13491753 13290996 
3302.316 13132198 13252802 13371835 13051267 12743252 12601675 12423114 
3305.691 12310340 12210239 12072924 12010310 12437741 13943775 16364247 
3309.066 15736373 12713159 12112478 12871428 12133262 11406587 11716615 
3312.442 11775952 12878391 13692092 11830801 10595081 10405093 10208028 
3315.817 10070496 10168069 10331182 10495782 10166984 9906735 9828064 
3319.192 9632683 9491236 9438747 9346720 9277660 9254576 9244726 9542444 
3323.050 9868871 9541191 9440202 9873956 9551860 9032727 9502174 10002407 
3326.907 9904226 9836875 9241274 8533474 8507186 8735324 8780798 8311014 
3330.764 8119860 8064262 8081916 8077866 8066152 7902909 8009244 9060097 
3334.622 10553491 9383114 8069224 8764298 11945153 12513612 9063243 7657299 
3338.479 7633222 7722492 7544341 7761956 7946878 7649307 7491008 7592218 
3342.337 7682627 7464107 7226023 7141637 7120990 7143221 7117555 7162354 
3346.194 7251526 7191390 7133688 7124122 7128602 7051746 6916522 6859361 
3350.052 6891644 6953018 7133856 7107854 6862189 6716021 6864848 7238792 
3353.909 7247518 6967024 7153360 8581326 9337849 7995036 8101563 8009785 
3357.766 6829606 6391482 6558935 7337348 7927104 7438018 6897299 7680367 
3361.624 9648945 9261752 7591510 6668946 6742168 7987105 8657304 8086338 
3365.481 9819048 10245649 7665865 6997833 8622321 8548276 6937430 6911876 
3369.339 6644284 6114935 5826072 5929583 5942011 5741555 5564484 5602846 
3373.196 5609760 5658868 5824762 6063121 5874432 5616540 5447706 5334717 
3377.053 5432138 5718994 5766267 5717785 5670550 5515487 5447538 5635941 
3380.911 5485085 5269848 5197176 5284538 5909967 6174149 6547364 8393871 
3384.768 7860599 7162994 8050288 6672244 5341391 5097092 4987243 4880104 
3388.626 4873703 4857285 4864221 4973803 5071948 5132060 5565725 7506144 
3392.483 12581857 14057828 8581292 5365376 5070809 5083648 4989992 5268238 
3396.341 6020989 9508136 12110774 8177627 5445961 5281318 5193622 5064070 
3400.198 5085995 5480152 6010406 6000731 5730408 5292554 5787858 6890163 
3404.055 6204264 5012851 4742607 4700402 4705828 4843816 4830816 4699665 
3407.913 4706464 4970251 5194728 4908788 4747799 4706364 4695143 4664128 
3411.770 4675214 4786089 5325895 5587977 5152881 4830313 4695378 4678731 
3415.628 4749842 4715173 4632178 4677157 4880036 5260625 5830874 6067926 
3419.485 7438119 11933266 17008124 12701661 9032423 10191780 8898610 7261736 
3423.343 6660669 5720102 4989623 4839326 4712828 4731385 4659238 4712828 
3427.200 5072753 6395248 6486552 5300402 4824081 4828269 4967301 6303998 
3431.057 7846664 6565023 5137625 5655209 5903417 5155463 4716915 4677559 
3434.915 4545082 4681343 4937910 5140810 4822540 4967033 5252140 5469415 
3438.772 5109362 5023711 5263040 5506325 5209214 5165489 6548675 12311124 
3442.630 15361256 9972028 5969354 5161297 5964382 8354112 7769276 6560146 
3446.487 13682348 30691348 27621280 11535832 7647217 6184098 4906006 4536075 
3450.344 4748067 4696951 4699564 4492550 4610210 4626887 4721068 4619118 
3454.202 4749608 4689985 5201200 6141551 6386540 5605933 5122605 5091191 
3458.059 5520856 6249641 5857203 5060853 5748741 6917162 7965540 8955702 
3461.917 8588863 11436895 12897881 7735983 5248652 5116369 5162907 4692463 
3465.774 5153417 6723155 10384730 10034177 6158623 4974909 5059210 4752757 
3469.632 4884426 5940398 6387481 5369268 5059210 4956476 4919713 5440291 
3473.489 5857774 5582372 8153418 12127674 9820166 5705732 4925443 4751484 
3477.346 4876049 4820295 4908118 5031856 5773218 6681093 11319821 14592464 
3481.204 10573725 12497960 22939730 18558090 7918499 5779598 6444109 6189610 
3485.061 6214212 7481367 7887590 6969650 6009230 8843960 17121710 15898600 
3488.919 7673655 4999578 4910765 5403016 6357792 6270011 5270418 4912776 
3492.776 4706163 5027566 5204855 5365276 7782769 10939359 9157037 10811921 
3496.634 15715141 11027102 5930556 5254387 5423985 5881451 7736287 8172899 
3500.491 6743715 9163704 14445177 16417168 18936222 29180460 31968880 
3503.866 20526726 17197266 16129315 10632295 7778079 6922919 6382673 6044776 
3507.724 5803002 7674128 14190980 26214170 28658222 14974838 9414908 9735716 
3511.581 11014052 8965376 7114152 7772615 7391505 6755562 6080896 5389865 
3515.438 5344746 5600698 5661520 6641861 8695907 8356409 8258464 12152037 
3519.296 12167779 8442044 6756537 6875519 7758920 8873009 15397095 29436498 
3523.153 32924830 24205246 22374178 17037172 14955186 17832298 15050160 
3526.529 17177618 29958394 28469682 20890302 20522174 28146264 22389424 
3529.904 10596678 11661031 16040329 14108893 8648009 6245473 6140072 5974326 
3533.761 5840344 6462135 6631095 6957495 12052858 26427540 26413456 12533495 
3537.619 6770369 6166520 6857779 7150261 7137225 7324846 7326902 6540267 
3541.476 6061340 6755999 11183840 16958542 19239898 21129598 22243238 
3544.851 35374952 47291368 25709264 17291350 35216744 40366720 19742950 
3548.227 16854332 15055615 8896040 7126042 9269807 10246938 10556547 
3551.602 23648820 46111628 34437992 15804026 19482550 19722736 10047301 
3554.977 6298754 5633525 5817408 7379811 11655007 10946324 7201901 6498155 
3558.834 7232053 9328234 17986366 25211162 17603920 12283344 12942904 
3562.210 19777592 20951532 22578064 30453658 24175012 20384878 29093436 
3565.585 62729932 100235880 115911760 72913424 47227564 79621256 83620240 
3568.960 39430916 11374068 10453830 17397218 17469510 7880809 5305199 
3572.335 6896458 9911142 11338968 12139429 17726084 22651678 16799464 
3575.711 7059222 8453598 17226466 22741472 10460482 5960419 7117420 9459775 
3579.568 17087658 22150096 15904374 9383013 5007521 5492366 11035564 
3582.943 15521285 21390606 16287046 10567819 8791246 10227601 21638886 
3586.319 48478324 84741616 42526392 35071136 44991564 51242952 10626930 
3589.694 8768863 13152654 11053442 2068515 4512303 7617305 26424408 58982072 
3593.551 34772448 20396164 25492062 57281124 71922824 46865072 8806427 
3596.927 8498062 10496393 14080484 23307956 20252452 19436636 20589882 
3600.302 24483042 38135544 54138292 16149227 15566340 20878898 12466724 
3603.677 3924255 7805607 12995102 8706082 9083205 15972089 70408944 
3607.052 104611784 67282184 34806656 35574820 58763092 71800256 19182442 
3610.427 12483058 11421179 16711513 35964472 73419240 86009496 50979548 
3613.803 29890594 54426600 78543864 40975516 17407910 13777624 13887119 
3617.178 38349356 69809048 51890004 20045702 30274818 43949024 30832368 
3620.553 21798422 13546274 4724786 3630931 2080801 8966256 11419071 3448739 
3624.411 1614846 6694216 12915732 27025728 44665452 29991128 20495288 
3627.786 33208978 130564256 151265312 129239424 110000736 85748520 43395512 
3631.161 22081132 17423396 14751352 15671581 28366214 68788336 79873312 
3634.536 22315958 10881564 9560125 8477959 10006713 10877385 14723107 
3637.912 27217310 24441364 14119128 8668087 10021191 7928014 8734209 
3641.287 16622992 27386814 33939812 30029150 20055520 13223084 11510653 
3644.662 12681702 18666100 27001750 45113480 85859144 128396200 126365752 
3648.037 67211480 65506644 104951080 125442144 91421120 104372736 133649064 
3651.413 98136472 44127792 22446466 18303168 14568272 10948737 11402675 
3654.788 14963520 24121982 50108964 97443352 70540704 29662172 13789355 
3658.163 9364019 8118982 8807644 13032624 14521025 9747577 7550443 7253447 
3662.021 6504478 5984773 6317580 6501216 5884608 5733094 6547465 7686640 
3665.878 8755710 8274979 8403937 11538350 21205682 53553844 94793784 
3669.253 64766184 54488428 74187712 115057680 76198872 42233564 25062232 
3672.628 15877567 15384497 25443716 52082828 108034224 172877296 172685344 
3676.004 178869696 101592912 51073720 44790072 29610914 19957226 40148500 
3679.379 68209872 47420696 29220718 13291747 4747698 6989920 8522696 5916247 
3683.236 4269908 8683907 15602539 19494470 9274242 10046487 13669832 
3686.612 18065736 30386170 52085780 86662128 105062520 44844588 35370816 
3689.987 34419912 49780544 110874664 93854200 59740976 19891976 2462342 
3693.362 10904124 14178005 4466572 1055749 4811752 6036612 5554818 5189161 
3697.219 4457466 916668 -5040695 1348303 8897765 14972266 6662587 7549634 
3701.077 11885896 34613316 44067460 35521276 30834998 12097726 6638698 
3704.452 8834459 11758112 9729313 12430411 14344138 7551252 5603417 10792322 
3708.310 19766598 51375516 98952016 103899304 33493672 43431032 62788472 
3711.685 94771320 167029360 111791864 51102604 12958129 14555971 29560474 
3715.060 37983816 17739614 8637700 11511062 12604539 5523037 7232053 
3718.435 15850555 51109908 33968904 13935562 -1831945 3565481 13005958 
3721.811 80922952 109431536 60193428 -4779946 -3243269 -2232249 38923068 
3725.186 42971744 18263704 30931660 66421076 38770740 10041061 -1625581 
3728.561 -13178811 -10888719 -10968042 7823318 18671290 15287803 50620240 
3731.936 70671336 57173768 34884960 25713940 44503056 72762792 117056464 
3735.312 132609520 106542376 97760944 90377248 42291888 38240032 64528160 
3738.687 71259304 40855112 21536194 25834186 41117980 46927752 33512778 
3742.062 27076296 26982888 35664952 73301432 200844224 307387616 179738720 
3745.437 87188032 58069440 46228848 49400104 66831380 59842424 56363080 
3748.813 81372976 137896016 120536848 78502376 70750136 88272504 121892064 
3752.188 166189872 109579136 64009392 47349376 34523580 19983418 17813622 
3755.563 20928548 34902772 63023628 48967616 22426510 18231842 25463426 
3758.938 49586068 80139664 87332208 44752680 18582126 9891583 9359110 
3762.313 12897504 12264973 10418701 11921824 12627019 17172206 34725428 
3765.689 67268456 49336436 20937796 11464383 9577197 11259493 16549634 
3769.064 29481422 60755364 88814552 47208800 20849142 15009169 11209373 
3772.439 5661553 4392528 4561890 5335622 5094510 4246084 3953712 4327030 
3776.297 4637101 5920782 8614379 14291402 17299800 23326732 54617624 
3779.672 81302128 37443236 12717799 7600412 8895499 9526695 7161612 6133451 
3783.529 7575731 17414602 39708936 42176196 24094346 13628800 10478233 
3786.905 8520228 6117120 4270075 3828642 4836679 6219624 5578848 3382281 
3790.762 2549588 2708797 2840916 3334231 4069487 4628863 5612177 6284870 
3794.619 7285220 10866615 21698792 50409980 74825216 43492996 33758276 
3797.995 31609240 19042906 17017910 19960382 31382230 60902752 102970200 
3801.370 148007536 102653440 70416928 67903392 48978816 21937314 13507852 
3804.745 12519547 14610213 21663194 42742556 83760144 107876560 55198688 
3808.120 26796342 14074119 9308498 7855200 6997362 6409775 6385968 6919821 
3811.978 7396393 8633746 9749508 10963518 12847640 17106820 28650684 
3815.353 59187940 117732184 125557464 64415352 34056052 22426022 25016810 
3818.728 29523128 29254672 47371176 83010024 121462800 136771200 127619728 
3822.104 75200472 37971524 27326684 23498012 20904106 19728144 15464663 
3825.479 19382446 24661338 44200856 56178412 31587004 22690814 19316206 
3828.854 12018963 8794728 9366085 13314672 23329460 52663688 85099064 
3832.229 48219440 20856580 13719414 15550337 28405302 61303260 84755864 
3835.604 45498100 26877936 29589206 53387944 99358808 131341664 72395392 
3838.980 44850356 48164536 74160352 73408960 71737016 51009064 22483454 
3842.355 13824516 20674766 49682496 76937344 43322144 22872982 13535232 
3845.730 8474343 9550234 10880545 9451648 9353491 10040587 13685937 25283608 
3849.588 39503704 32042750 23873362 35616720 69803712 129677864 113080392 
3852.963 90357784 111171120 177781664 136681872 80506704 46023316 25580828 
3856.338 23448978 43474464 62121056 33603272 12520911 8753547 9443860 
3859.713 9185634 8905645 12306761 27018604 58982296 56334372 31118460 
3863.089 27472296 32249264 46295928 77750816 102329936 68574184 36888284 
3866.464 20556044 12303796 11572887 14494097 25190268 54187576 102297808 
3869.839 122090976 97949848 57674328 43836556 28747532 13577144 11686525 
3873.214 25066130 65202960 107525248 64136656 22577436 9317571 6834385 
3876.590 6764547 6713396 7257086 8272040 9485953 13623023 29979446 75459904 
3880.447 112794352 78599176 39788632 16940454 12515079 23041848 36245280 
3883.822 25924922 17880322 24986838 54191520 110898696 72920632 26682416 
3887.198 10802071 6406446 5327974 5439318 6358565 8325808 13224176 28794054 
3891.055 66053480 86583632 50482212 27096008 17612892 14487690 22179070 
3894.430 21163064 10299253 6255422 5693008 6744052 8543578 12906960 24223042 
3898.288 34756152 48701920 85498360 61811396 25548636 16952408 30339798 
3901.663 73410728 92432952 44668060 25972442 39465020 74340280 62508800 
3905.038 37405780 38524312 48236476 30736264 10275436 5452470 4807731 
3908.413 4113805 3618769 4027079 4502828 5187217 5246204 4657430 4109122 
3912.271 4919411 5511493 5306608 5153988 5813714 5279004 5412578 10388972 
3916.128 26724206 39479280 45884456 36401088 13776391 6158757 6707170 
3919.503 17348316 39962532 32393362 10549554 4586937 3719315 4273990 8393398 
3923.361 20066764 27372414 29642946 40092464 42934728 19099338 5944564 
3926.736 3760790 4511634 6230380 8199135 11539848 23097684 25927312 20080992 
3930.594 22276578 15662821 15868150 38658152 48086428 21674864 10377129 
3933.969 14446274 12403782 6062517 4632279 3781078 3575470 3276805 3541595 
3937.826 5930556 8858197 7572291 5870267 4548731 4975010 5822647 5683005 
3941.684 7828446 23262894 52368696 38581884 13043482 11742759 12438559 
3945.059 6703469 3666249 3823127 5775938 15036816 25167132 24772804 17237944 
3948.916 9009013 14296435 31912748 27954342 11004026 4903828 4140498 5597844 
3952.774 9955721 12155069 7062252 4033801 4136250 5355010 5153585 5389563 
3956.631 9517246 10848746 7087208 7463602 7218409 5641547 6974465 6695864 
3960.489 4421314 5356789 12966528 20349286 12803855 4677793 3873604 4642862 
3964.346 4567113 4608301 3731245 2819271 2801963 3099200 3708821 3879889 
3968.203 3904830 7070032 11348967 7959128 4099054 3593778 3569924 5350348 
3972.061 9714844 10681431 7458477 6690447 7947688 7197522 7591847 8083570 
3975.918 9576553 9570320 5677062 3665748 3389294 3477228 3589902 4118655 
3979.776 4794331 4593969 4506109 4331012 4824584 6719217 6300367 4359694 
3983.633 3047244 3032562 3689406 4240329 3872602 3529970 3083482 2771417 
3987.490 2930474 3112015 3205100 3832119 5005645 6199155 9025048 9588104 
3991.348 5435023 3270495 3734387 4276901 3575470 3405256 4494693 8548073 
3995.205 10126283 5798334 3290527 3032629 3011709 2970139 2969338 3248195 
3999.063 3320441 3001466 2871867 3056053 
##END=
