##TITLE=RF23MBUT,  200 ul of 2,3 Dimethyl butene
##JCAMP-DX=5.01  $$ Nicolet v. 521
##DATATYPE=INFRARED SPECTRUM
##ORIGIN=ceam
##OWNER=Nicolet
##DATE=97/06/18
##TIME=10:59:18
##DATA PROCESSING=
Ratio against background
%Transmittance->Absorbance
Subtraction or Addition
Straight Line generate
Truncated
ElementMultiply or ElementDivide
##XUNITS=1/CM
##YUNITS=ABSORBANCE
##FIRSTX=400.163208
##LASTX=4000.185791
##FIRSTY=0.159793
##MAXX=4000.185791
##MINX=400.163208
##MAXY=0.242571
##MINY=-0.480677
##XFACTOR=1.000000
##YFACTOR=1.000000E-009
##NPOINTS=7468
##DELTAX=0.482124
##XYDATA=(X++(Y..Y))
400.163 159793008 108725672 113811696 99166456 84673920 103495488 110053912 
403.538 10281512 28126554 113992352 90872224 75192344 115567336 178659760 
406.913 5133703 -257976048 33899180 237563072 173992640 242570992 238683408 
410.288 193244944 135848160 137921728 155453184 125190896 122568280 86863432 
413.662 79143752 107441528 105874776 71110808 79927096 70281736 86164776 
417.037 95412448 116530792 133400264 105440696 76750960 94288528 70875136 
420.412 55586168 44545084 44890684 72117064 83868544 84459888 88675504 
423.787 63697712 75799632 79549464 80138904 84195912 83894656 66113516 
427.162 56591176 61517140 64753040 58130480 48832392 42898688 50021928 
430.537 50476624 46861708 48966164 52956948 56837328 63193136 49823876 
433.911 40487444 51877896 61431656 44356996 37826324 32551766 22445638 
437.286 20203236 26539662 27934246 18460908 11240250 21147448 34190292 
440.661 39516656 34043536 30742216 24235584 19015736 25999982 13796329 
444.036 4719797 2875052 -525073 -945552 4745678 1732670 -14258466 -369022 
447.893 7057987 -398212 -5360950 -8193636 -8876166 5613034 10038665 -5099074 
451.750 -14418961 -12504244 -12733150 -17497294 -19001098 -15936807 
454.642 -12075565 -6225090 -11090430 -13852091 -9836939 -11283766 -28984718 
458.017 -41465160 -33839148 -28855446 -26443274 -23675694 -25183238 
460.910 -35651944 -40858088 -36516800 -32734354 -31122104 -32358308 
463.803 -34391092 -36341488 -35471256 -36880900 -39029152 -38250036 
466.695 -37927420 -38197816 -41240808 -42311884 -40927520 -42326972 
469.588 -43265380 -40463796 -37151700 -40337668 -45962816 -44340564 
472.481 -41221924 -53699432 -51830532 -49578412 -48038492 -47844584 
475.373 -48470836 -48218020 -54231432 -59140520 -53244208 -50344304 
478.266 -51704620 -51763792 -55876964 -56257844 -53617636 -48896116 
481.159 -51286696 -57622252 -56645288 -50397040 -47000432 -48831640 
484.052 -55233044 -56862028 -55234948 -56832184 -59498960 -63899672 
486.944 -62715372 -58599492 -59723220 -59516244 -59660704 -64588076 
489.837 -63463344 -60941032 -60451088 -64079136 -64788872 -64754472 
492.730 -63390948 -61159572 -59935620 -65535464 -71923424 -70901448 
495.622 -67023596 -67349064 -69087720 -72176952 -68796368 -73620432 
498.515 -75791016 -75070768 -74214920 -64144864 -68074328 -76275888 
501.408 -71732376 -73046776 -79086760 -70257200 -67902576 -69649392 
504.300 -69938056 -73522976 -72999272 -67781048 -64903252 -61817596 
507.193 -66537492 -72993904 -75878784 -80724872 -82786048 -77592816 
510.086 -74127024 -77089592 -71235536 -78511648 -85387856 -72111928 
512.979 -68541856 -65093292 -63746580 -63666528 -70124192 -80802656 
515.871 -81752896 -75962200 -74380864 -66330568 -63068412 -69102064 
518.764 -80186032 -88659648 -94269576 -91131984 -80287296 -76477688 
521.657 -75755904 -84664416 -81951608 -81928728 -83887280 -82836136 
524.549 -82859120 -81771312 -80258968 -80574720 -79881072 -80630432 
527.442 -78138776 -76429960 -79079104 -79959704 -79445952 -79586168 
530.335 -79149248 -77845384 -76846792 -78883832 -82158208 -82782544 
533.227 -80213872 -79557280 -81312296 -81903416 -81510624 -80008152 
536.120 -79968032 -80924200 -80419544 -79053872 -80095112 -80503672 
539.013 -82238512 -83721056 -81899608 -80451984 -79759912 -78629000 
541.906 -82839144 -85176952 -84153472 -82931976 -85183112 -91078104 
544.798 -89671648 -90461824 -89828712 -85080192 -83507640 -81503536 
547.691 -83091704 -85097888 -84072632 -84213384 -84471736 -83160304 
550.584 -82624832 -82286136 -82942296 -82905824 -83459696 -85145376 
553.476 -86516280 -88292952 -88076520 -86813568 -87423704 -87505552 
556.369 -87799168 -89337408 -87984960 -85740448 -87153296 -87539288 
559.262 -88986920 -87544376 -88611264 -90774304 -93048040 -88570536 
562.154 -85988312 -88536080 -90647000 -91149760 -91176208 -91202664 
565.047 -91229112 -91255560 -91282008 -91308456 -91334912 -91361360 
567.940 -91387816 -91414264 -91440712 -91467168 -91493616 -91520064 
570.833 -91546512 -91572960 -91599416 -91625864 -91652312 -91678760 
573.725 -91705208 -91731664 -91758120 -91784568 -91811016 -91837464 
576.618 -91863912 -91890368 -91916816 -91943264 -91969712 -91996160 
579.511 -92022616 -92049064 -92075512 -92101960 -92128408 -92154864 
582.403 -92181320 -92207768 -92234216 -92260664 -92287112 -92313568 
585.296 -92340016 -92366464 -92392912 -92419360 -92445816 -92472264 
588.189 -92498712 -92525160 -92551608 -92578064 -92604520 -92630968 
591.081 -92657416 -92683864 -92710320 -92736768 -92763216 -92789664 
593.974 -92816112 -92842560 -92869016 -92895464 -92921912 -92948360 
596.867 -92974816 -93001272 -93027720 -93054168 -93080616 -93107064 
599.760 -93133520 -93159968 -93186416 -93212864 -93239312 -93265768 
602.652 -93292216 -93318664 -93345112 -93371568 -93398016 -93424472 
605.545 -93450920 -93477368 -93503816 -93530264 -93556720 -93583168 
608.438 -93609616 -93636064 -93662512 -93688968 -93715416 -93741864 
611.330 -93768312 -93794760 -93821224 -93847672 -93874120 -93900568 
614.223 -93927016 -93953464 -93979920 -94006368 -94032816 -94059264 
617.116 -94085712 -94112168 -94138616 -94165064 -94191520 -94217968 
620.008 -94244424 -94270872 -94297320 -94323768 -94350216 -94376672 
622.901 -94403120 -94429568 -94456016 -94482464 -94508920 -94535368 
625.794 -94561816 -94588272 -94614720 -94641168 -94667624 -94694072 
628.687 -94720520 -94746968 -94773416 -94799872 -94826320 -94852768 
631.579 -94879216 -94905664 -94932120 -94958568 -94985016 -95011472 
634.472 -95037920 -95064368 -95090824 -95117272 -95143720 -95170168 
637.365 -95196616 -95223072 -95249520 -95275968 -95302416 -95328864 
640.257 -95355320 -95381776 -95408224 -95434672 -95461120 -95487576 
643.150 -95514024 -95540472 -95566920 -95593368 -95619824 -95646272 
646.043 -95672720 -95699168 -95725616 -95752064 -95778520 -95804976 
648.935 -95831424 -95857872 -95884320 -95910776 -95937224 -95963672 
651.828 -95990120 -96016568 -96043024 -96069472 -96095920 -96122368 
654.721 -96148816 -96175272 -96201720 -96228176 -96254624 -96281072 
657.614 -96307520 -96333976 -96360424 -96386872 -96413320 -96439768 
660.506 -96466224 -96492672 -96519120 -96545568 -96572016 -96598480 
663.399 -96624928 -96651376 -96677824 -96704272 -96730720 -96757176 
666.292 -96783624 -96810072 -96836520 -96862968 -96889424 -96915872 
669.184 -96942320 -96968768 -96995216 -97021680 -97048128 -97074576 
672.077 -97101024 -97127472 -97153928 -97180376 -97206824 -97233272 
674.970 -97259720 -97286176 -97312624 -97339072 -97365520 -97391968 
677.862 -97418424 -97444880 -97471328 -97497776 -97524224 -97550672 
680.755 -97577128 -97603576 -97630024 -97656472 -97682920 -97709376 
683.648 -97735824 -97762272 -97788720 -97815176 -97841624 -97868080 
686.541 -97894528 -97920976 -97947424 -97973872 -98000328 -98026776 
689.433 -98053224 -98079672 -98106120 -98132576 -98159024 -98185472 
692.326 -98211920 -98238376 -98264832 -98291280 -98317728 -98344176 
695.219 -98370624 -98397080 -98423528 -98449976 -98476424 -98502872 
698.111 -98529320 -98555776 -98582224 -98608672 -98635128 -98661576 
701.004 -98688032 -98714480 -98740928 -98767376 -98793824 -98820280 
703.897 -98846728 -98873176 -98899624 -98926072 -98952528 -98978976 
706.789 -99005424 -99031872 -99058328 -99084776 -99111232 -99137680 
709.682 -99164128 -99190576 -99217024 -99243480 -99269928 -99296376 
712.575 -99322824 -99349272 -99375728 -99402176 -99428632 -99455080 
715.468 -99481528 -99507984 -99534432 -99560880 -99587328 -99613776 
718.360 -99640224 -99666680 -99693128 -99719576 -99746024 -99772472 
721.253 -99798928 -99825376 -99851832 -99878280 -99904728 -99931184 
724.146 -99957632 -99984080 -100010528 -100036976 -100063432 -100089880 
727.038 -100116328 -100142776 -100169224 -100195680 -100222128 -100248576 
729.931 -100275032 -100301480 -100327928 -100354384 -100380832 -100407280 
732.824 -100433728 -100460176 -100486632 -100513080 -100539528 -100565976 
735.716 -100592424 -100618880 -100645336 -100671784 -100698232 -100724680 
738.609 -100751128 -100777584 -100804032 -100830480 -100856928 -100883376 
741.502 -100909832 -100936280 -100962728 -100989176 -101015624 -101042088 
744.395 -101068536 -101094984 -101121432 -101147880 -101174336 -101200784 
747.287 -101227232 -101253680 -101280128 -101306584 -101333032 -101359480 
750.180 -101385928 -101412376 -101438824 -101465288 -101491736 -101518184 
753.073 -101544632 -101571080 -101597536 -101623984 -101650432 -101676880 
755.965 -101703328 -101729784 -101756232 -101782680 -101809128 -101835576 
758.858 -101862032 -101888488 -101914936 -101941384 -101967832 -101994280 
761.751 -102020736 -102047184 -102073632 -102100080 -102126528 -102152984 
764.643 -102179432 -102205880 -102232328 -102258784 -102285240 -102311688 
767.536 -102338136 -102364584 -102391032 -102417480 -102443936 -102470384 
770.429 -102496832 -102523280 -102549728 -102576184 -102602632 -102629080 
773.322 -102655528 -102681984 -102708440 -102734888 -102761336 -102787784 
776.214 -102814232 -102840688 -102867136 -102893584 -102920032 -102946480 
779.107 -102972936 -102999384 -103025832 -103052280 -103078736 -103105184 
782.000 -103131640 -103158088 -103184536 -103210984 -103237432 -103263888 
784.892 -103290336 -103316784 -103343232 -103369680 -103396136 -103422584 
787.785 -103449032 -103475480 -103501936 -103528384 -103554840 -103581288 
790.678 -103607736 -103634184 -103660632 -103687088 -103713536 -103739984 
793.570 -103766432 -103792880 -103819336 -103845784 -103872232 -103898688 
796.463 -103925136 -103951592 -103978040 -104004488 -104030936 -104057384 
799.356 -104083840 -104110288 -104136736 -104163184 -104189632 -104216080 
802.249 -104242536 -104268984 -104295440 -104321888 -104348336 -104374792 
805.141 -104401240 -104427688 -104454136 -104480584 -104507040 -104533488 
808.034 -104559936 -104586384 -104612832 -104639288 -104665736 -104692192 
810.927 -104718640 -104745088 -104771536 -104797992 -104824440 -104850888 
813.819 -104877336 -104903784 -104930240 -104956688 -104983136 -105009584 
816.712 -105036032 -105062488 -105088936 -105115392 -105141840 -105168288 
819.605 -105194736 -105221192 -105247640 -105274088 -105300536 -105326984 
822.497 -105353440 -105379888 -105406336 -105432784 -105459232 -105485688 
825.390 -105512144 -105538592 -105565040 -105591488 -105617944 -105644392 
828.283 -105670840 -105697288 -105723736 -105750192 -105776640 -105803088 
831.176 -105829536 -105855984 -105882440 -105908896 -105935344 -105961792 
834.068 -105988240 -106014688 -106041144 -106067592 -106094040 -106120488 
836.961 -106146936 -106173392 -106199840 -106226288 -106252736 -106279184 
839.854 -106305640 -106332096 -106358544 -103253264 -100736368 -103384216 
842.746 -104920216 -103780232 -103008520 -105518152 -107223528 -106867976 
845.639 -107683376 -106285312 -104010832 -103420336 -104655880 -106129760 
848.532 -105021024 -102938576 -103545056 -104991904 -103666672 -102820896 
851.424 -103759752 -104166720 -104254464 -104727184 -105623144 -105166760 
854.317 -105285504 -104733456 -103828680 -104669120 -105382032 -104872224 
857.210 -105359416 -105896896 -106661976 -106196688 -104600672 -103222344 
860.103 -103377856 -103254248 -103561400 -105096208 -105240632 -105376128 
862.995 -105565416 -105395936 -105516600 -105447080 -105110624 -104704360 
865.888 -104132920 -104419808 -104078120 -103300480 -103498600 -104229112 
868.781 -105231136 -105676936 -104691720 -104057184 -104079856 -104294192 
871.673 -104747496 -104584952 -104080040 -104668704 -103913704 -102964832 
874.566 -103621736 -104484920 -105508176 -105249240 -104692720 -104873136 
877.459 -104700624 -105294392 -107310768 -106871848 -104748304 -105093560 
880.351 -103809352 -103097680 -106807448 -107404608 -104131368 -103921288 
883.244 -105341384 -104768232 -103674208 -102651552 -102996800 -102392192 
886.137 -101031136 -102102072 -102115072 -104045632 -104373096 -103101640 
889.030 -104480752 -105424264 -103699288 -102158880 -102441472 -103714008 
891.922 -105000208 -104404472 -103278488 -103688888 -103744528 -104427336 
894.815 -104242032 -104248168 -104587328 -104903976 -104671680 -104535360 
897.708 -104336736 -104334104 -104274936 -103542880 -103311672 -104201456 
900.600 -105329976 -105621904 -104315648 -103300960 -103589520 -103696920 
903.493 -103902456 -104285936 -104861992 -104323304 -103798512 -103672248 
906.386 -103674672 -103800584 -104365696 -104920320 -104659656 -104105624 
909.278 -104126512 -104164688 -103581520 -103312800 -103632248 -103871336 
912.171 -104214280 -103817544 -103563544 -104301344 -104553488 -103978328 
915.064 -103794736 -104712408 -105002392 -104426576 -104091104 -104176440 
917.957 -104373104 -103994672 -103837856 -104761816 -104917400 -104526152 
920.849 -104598928 -103961432 -103750112 -103575056 -104003376 -104430968 
923.742 -104474648 -104587632 -104602768 -104628520 -104125424 -103996912 
926.635 -104568032 -105069920 -104960448 -104189424 -103755904 -104323592 
929.527 -104020192 -103634112 -104253680 -104504432 -104230096 -104056304 
932.420 -104523880 -105063256 -104530560 -104303240 -104319168 -104354448 
935.313 -103897864 -103505432 -104366000 -105174640 -105083736 -105174152 
938.205 -105231024 -105409368 -104938216 -105099544 -105148864 -105247376 
941.098 -105596904 -105495040 -105214200 -104454712 -103795824 -104205168 
943.991 -104054512 -104051464 -103931160 -104317520 -106299496 -105641520 
946.884 -104281912 -104832368 -105372736 -104535880 -104300752 -104084024 
949.776 -104228200 -104260880 -104147840 -104787920 -105635192 -105338872 
952.669 -104932728 -105043952 -104719384 -104787056 -105225200 -105301928 
955.562 -105544848 -104955456 -104331960 -104618968 -104648920 -104554104 
958.454 -104373544 -104363952 -104518288 -104494328 -104256704 -104357560 
961.347 -104755224 -105018808 -104651992 -104216584 -103920400 -104449480 
964.240 -104900840 -104339856 -103592024 -104016568 -105066960 -105367336 
967.132 -104977384 -104891872 -104117264 -104331344 -105191920 -105348144 
970.025 -105078160 -104866176 -105237592 -105375016 -104643432 -104118040 
972.918 -105493840 -106583864 -105215032 -104931584 -105480184 -105358280 
975.811 -105835928 -105325488 -104607072 -104766336 -105072920 -105559904 
978.703 -105647880 -106380256 -106021496 -104682192 -105679448 -106721048 
981.596 -106237160 -105736008 -105055832 -105446872 -105973608 -105309336 
984.489 -105347872 -106131528 -105741664 -105438096 -105139984 -105122600 
987.381 -106143944 -105977384 -105642264 -105767944 -106192568 -106571776 
990.274 -106816504 -105552760 -104619672 -105514648 -105745064 -105162592 
993.167 -105147048 -104167136 -105488264 -106226336 -105904048 -105347920 
996.059 -104043648 -103833448 -104582496 -105571864 -107047408 -107369312 
998.952 -106224320 -105199256 -105595320 -105933944 -106168480 -106830504 
1001.845 -107052344 -106448936 -105598976 -105225784 -105445128 -106078888 
1004.738 -106264056 -106079840 -106033944 -105945200 -105537912 -105743928 
1007.630 -106377480 -106344672 -106541712 -106645480 -106492192 -106644096 
1010.523 -106315712 -105684408 -105862376 -106426360 -106426576 -106079232 
1013.416 -105921368 -105844832 -105940912 -105689752 -105427248 -105328528 
1016.308 -105895088 -106073384 -105478208 -105504032 -106537728 -106863136 
1019.201 -106102272 -105801096 -105936240 -106207256 -106415432 -106224320 
1022.094 -105479584 -106248760 -106805216 -106162336 -106747312 -106822960 
1024.987 -106661432 -106982384 -106872784 -106410160 -106083336 -106377872 
1027.880 -106158720 -105695432 -105860208 -106381192 -105688784 -106499208 
1030.773 -107155000 -106624912 -106084688 -105669816 -105620840 -106138096 
1033.666 -106239856 -107955296 -107511816 -107122720 -106390840 -106059664 
1036.559 -106693880 -106845160 -107304552 -106621544 -105818944 -106529392 
1039.452 -108104056 -107136880 -106202640 -106311448 -106988528 -106917784 
1042.345 -106325728 -106346216 -106406176 -106306944 -106669136 -107291528 
1045.238 -107357112 -106883880 -107016336 -107790568 -107368096 -106314352 
1048.131 -105946552 -106371056 -106777888 -105650656 -105701336 -106850408 
1051.024 -106909672 -106081064 -106575696 -107537744 -106698624 -106804848 
1053.917 -106955912 -105914472 -106230808 -106956696 -106535880 -106117280 
1056.810 -106265384 -106073176 -106043928 -106282552 -106356296 -106413416 
1059.703 -105781496 -105464016 -106040392 -106047544 -105953864 -106186312 
1062.596 -106063728 -105892440 -105906808 -105516336 -105571528 -105430360 
1065.490 -105294920 -105898384 -106504584 -106198792 -105930656 -106175048 
1068.383 -106540192 -106393328 -106259096 -106568952 -106424344 -106279080 
1071.276 -105966392 -106435728 -106971608 -106871712 -106805480 -105441272 
1074.169 -104522480 -105820064 -105136248 -104651128 -106364936 -107044712 
1077.062 -106605752 -106576648 -106141032 -105936584 -105834624 -106429112 
1079.955 -107370568 -107528952 -106655088 -106657432 -107371696 -108314296 
1082.848 -107928656 -107088016 -106323240 -106200024 -105426120 -105386976 
1085.741 -105977088 -106144128 -106193680 -105692456 -105866280 -105735048 
1088.634 -106225104 -106307168 -105461016 -104976176 -105424800 -105808856 
1091.527 -106081400 -105363776 -104701624 -105547704 -106760496 -106796512 
1094.420 -105811752 -105078552 -105234064 -105399672 -105158504 -105348136 
1097.313 -105389048 -105473656 -106059432 -106425216 -105651416 -105908936 
1100.206 -106297056 -105641824 -105389664 -104918600 -104694032 -104350840 
1103.099 -104677888 -105324176 -105001272 -105082704 -105989144 -106738568 
1105.992 -106602664 -106185656 -104372744 -105577752 -105485800 -103381216 
1108.885 -102999712 -104584256 -103707320 -100309200 -100897832 -102029752 
1111.779 -102182224 -101524888 -101128304 -105157520 -103869448 -104803752 
1114.672 -107981336 -106497168 -105392464 -104322016 -105447528 -105333744 
1117.565 -104952320 -107239944 -106006168 -104065352 -105297608 -107279456 
1120.458 -107651848 -106231088 -104272544 -103895864 -105183816 -105407008 
1123.351 -103636800 -103721600 -104057824 -103400048 -103377568 -103783240 
1126.244 -102090360 -102248232 -104054056 -104609072 -104926912 -104852720 
1129.137 -105026832 -103865592 -104685544 -105122016 -103858072 -104504800 
1132.030 -104505856 -104725344 -105588184 -105073376 -105137976 -103247224 
1134.923 -101887936 -102571304 -102240112 -102421784 -103240024 -102267864 
1137.816 -102702104 -103392160 -103761808 -103250064 -102908800 -102953096 
1140.709 -102629104 -102818232 -102602592 -102477840 -103099280 -103038776 
1143.602 -102906792 -102345776 -101558768 -101165976 -100893576 -101315288 
1146.495 -101825152 -101528008 -101216088 -100875744 -101099752 -100612920 
1149.388 -100227336 -99971656 -99537040 -99520912 -98804608 -99177320 
1152.281 -99762080 -99386584 -98931648 -98321592 -99648456 -99731392 
1155.175 -98183192 -97306944 -95655472 -94040064 -96621784 -98959264 
1158.068 -97528104 -96037872 -96265320 -96011472 -95024976 -94165648 
1160.961 -92803024 -90801528 -90337512 -90881696 -90377624 -88667600 
1163.854 -88340504 -88957856 -89169464 -89042760 -88775856 -88871152 
1166.747 -90217944 -90833376 -91208160 -91315136 -91337136 -91850832 
1169.640 -92957152 -93028608 -92712448 -92397368 -92287392 -92785024 
1172.533 -93554752 -93687608 -95065504 -95657928 -96105096 -96829336 
1175.426 -97250864 -97789760 -97115264 -96509168 -97189864 -97523072 
1178.319 -96831192 -97177128 -98206736 -98542744 -98540872 -99135512 
1181.212 -99698016 -99476704 -99139056 -99956680 -100291720 -100188168 
1184.105 -101369200 -102177120 -102099432 -102867560 -102508240 -102035632 
1186.998 -102383560 -102509152 -102580272 -102932152 -103259160 -103187936 
1189.891 -103887576 -104332976 -104351472 -104623784 -104819160 -105156360 
1192.784 -105005904 -104846856 -105908336 -106111632 -105212408 -104335072 
1195.677 -103716584 -104468576 -104309616 -103324112 -103422248 -103437168 
1198.571 -104550440 -105422256 -104964264 -105421792 -106085360 -105327032 
1201.464 -105983160 -106608232 -106427536 -106693344 -106334576 -105903128 
1204.357 -105945776 -105979424 -106014040 -105358448 -105393888 -105955248 
1207.250 -105968368 -105392152 -105122744 -105054456 -105359224 -105521456 
1210.143 -106623248 -106968928 -106569264 -105997504 -105167800 -104390960 
1213.036 -104818872 -105099600 -106073120 -106199000 -107393072 -108525472 
1215.929 -105856056 -103772104 -104238984 -105687376 -106533232 -105526000 
1218.822 -105155088 -105719704 -105795376 -106363624 -106660288 -106055928 
1221.715 -105789680 -106088656 -105998016 -105491336 -106079032 -105905728 
1224.608 -105476944 -105393320 -105382624 -105203120 -105137880 -105478048 
1227.501 -105647504 -105199200 -105005856 -104679440 -105067248 -106408760 
1230.394 -106923392 -105998904 -104941304 -104455296 -105519056 -106259680 
1233.287 -105731184 -105638312 -105979424 -105584320 -105491312 -106028600 
1236.180 -106480840 -106806224 -107073904 -106571672 -105217192 -105836680 
1239.073 -107855128 -107445744 -105524584 -105916272 -105809320 -106518376 
1241.967 -107296128 -106495200 -105396752 -105403816 -105491376 -105806840 
1244.860 -104850280 -102385960 -102407392 -104128632 -105623968 -105505880 
1247.753 -104909048 -105559360 -105082888 -104700664 -105752120 -106167512 
1250.646 -106002752 -104952864 -105239424 -105069080 -104770592 -103408808 
1253.539 -102270456 -102828184 -104041912 -104577944 -104821872 -105011872 
1256.432 -105563984 -105711040 -104956072 -104536792 -104804456 -104601784 
1259.325 -102012240 -100960488 -102386992 -102309368 -103192416 -103212384 
1262.218 -103234168 -104078752 -102503256 -103491656 -105070168 -104746416 
1265.111 -102870928 -101741760 -103809944 -105018344 -104374752 -100638128 
1268.004 -98239904 -99111152 -101385992 -104427760 -104777808 -101422264 
1270.897 -98157784 -98795232 -102569776 -104874816 -104552472 -103974968 
1273.790 -102901856 -102935016 -101637152 -99535208 -102042216 -103268320 
1276.683 -100933232 -100065184 -101905576 -104588736 -105293632 -105157024 
1279.576 -105337384 -104396896 -103816360 -102900264 -101065848 -102437312 
1282.469 -101076192 -97355336 -99508288 -104946520 -106315512 -106143064 
1285.363 -106056240 -105793544 -105781208 -105014816 -102030776 -98230592 
1288.256 -97781224 -98362792 -102578352 -105006408 -105050784 -105431472 
1291.149 -104647816 -103641376 -103425160 -103584256 -104451808 -103860112 
1294.042 -101165832 -99192880 -100456280 -102631744 -104512704 -104637504 
1296.935 -102809904 -99367736 -101196256 -104169272 -103575456 -100366368 
1299.828 -98344856 -100749760 -101645024 -97190272 -93516344 -94833040 
1302.721 -92275952 -86078408 -83006480 -85317536 -83107200 -77359240 
1305.614 -66213748 -82638920 -103460384 -107098552 -106960576 -107018808 
1308.507 -106742936 -105967776 -105960064 -105329256 -104784848 -102999656 
1311.400 -100823128 -104335744 -106558680 -105804592 -105337112 -107054928 
1314.293 -107215720 -105747608 -105153280 -106049408 -104993496 -102472816 
1317.186 -104481856 -106507520 -106301192 -105288088 -104905472 -104760704 
1320.079 -104295736 -105354528 -105376672 -102999880 -99010064 -102970168 
1322.972 -106380792 -106438648 -105977840 -105384048 -105301560 -104779568 
1325.865 -104569880 -102688912 -93497224 -89393816 -101416616 -105731184 
1328.759 -105973376 -105351976 -105028144 -104503464 -104481408 -103885936 
1331.652 -100109520 -89273792 -88847944 -102186712 -106206664 -105888944 
1334.545 -105234712 -104680328 -104462568 -105157680 -105231344 -98723704 
1337.438 -94290256 -100601096 -108468576 -109090880 -105504792 -104267600 
1340.331 -105510600 -104096464 -96056696 -90231656 -93044144 -95399112 
1343.224 -102511304 -105635488 -105687240 -105104496 -104092328 -102887992 
1346.117 -99199208 -94969976 -98280840 -101007728 -101478088 -103293488 
1349.010 -103488600 -103490240 -103721960 -101674808 -99468744 -100877528 
1351.903 -103178880 -102583896 -99846400 -101259504 -104266640 -104329688 
1354.796 -101883656 -99505104 -99264256 -101025048 -102407144 -103411728 
1357.689 -102798696 -102461352 -102733752 -102661456 -102475688 -101462912 
1360.582 -105499544 -110960456 -104229912 -99020192 -98758776 -105109080 
1363.475 -110858248 -103120848 -101252184 -101292040 -100826536 -99753296 
1366.368 -99956928 -100144136 -99955624 -99849032 -100685672 -100952536 
1369.261 -100064296 -99466432 -99216456 -99056904 -98470800 -98372800 
1372.155 -97610888 -96952904 -100598800 -109227152 -104867864 -96209568 
1375.048 -95318664 -96546968 -96202576 -96630160 -97736112 -97391512 
1377.941 -97932440 -97668312 -97443464 -96440440 -95882144 -95888280 
1380.834 -96466560 -96292648 -95542104 -95657288 -95740264 -95497912 
1383.727 -96219296 -96214056 -95416032 -94632096 -94312456 -96090144 
1386.620 -96674056 -103859376 -110139664 -100792432 -96966192 -97208880 
1389.513 -97334528 -97368784 -98330056 -98143664 -98442640 -97853576 
1392.406 -97596576 -96861096 -95942296 -99645656 -112062376 -107690600 
1395.299 -100348008 -103684888 -101591520 -98264136 -100853400 -103618568 
1398.192 -100268840 -105361232 -116091368 -109482664 -101371552 -101213824 
1401.085 -101087560 -101091632 -100905720 -100245032 -100294608 -100504096 
1403.978 -99841520 -104396840 -110631648 -106931360 -101813752 -102459936 
1406.871 -102994744 -102639440 -101912264 -102585144 -103695064 -103863616 
1409.764 -103481632 -103758064 -103670624 -103084152 -102031112 -101933384 
1412.657 -101958160 -101782080 -101620664 -101470024 -101253464 -101278136 
1415.551 -103079288 -104978576 -103723088 -107428712 -109791072 -102030200 
1418.444 -101878880 -116836056 -128278224 -113111448 -101922560 -102798144 
1421.337 -103407280 -102499648 -101362440 -100461136 -100507088 -98897560 
1424.230 -105034320 -102128448 -100132408 -100243832 -100661880 -100967456 
1427.123 -100967640 -101163592 -101048464 -100602328 -101116680 -106614208 
1430.016 -108962776 -103276416 -100767088 -100267896 -99162000 -98391624 
1432.909 -99477680 -99923616 -99843400 -98798640 -99164232 -99033832 
1435.802 -99020704 -128149496 -161903056 -118573040 -100597944 -98971752 
1438.695 -99351344 -98734504 -98276024 -97704440 -97752896 -97901560 
1441.588 -98267872 -97608840 -97462384 -96885528 -97351072 -97731088 
1444.481 -97567016 -96452632 -96171576 -95313184 -94529280 -93825624 
1447.374 -100311832 -111614016 -106100600 -96176256 -96531624 -96384944 
1450.267 -96503632 -95316120 -95985336 -98301712 -99293936 -95986080 
1453.160 -94959296 -93287680 -92706200 -90815448 -94084176 -89658616 
1456.053 -95554872 -141495728 -131559016 -90131376 -94107184 -99101016 
1458.947 -92569008 -98229352 -95634208 -95236248 -95767264 -95959816 
1461.840 -95263432 -95199704 -95066504 -94165704 -89978216 -90826120 
1464.733 -101122856 -101623192 -92564016 -94504792 -95090128 -95888992 
1467.626 -96324064 -96817528 -96885752 -97572704 -97162416 -96671824 
1470.519 -94133224 -92889744 -95478664 -98806688 -95854016 -91962912 
1473.412 -107309528 -105157344 -96283264 -95340312 -95623944 -110381544 
1476.305 -120768840 -109576976 -99095304 -98906232 -99776816 -100288160 
1479.198 -100528040 -100189992 -100006760 -100118488 -100429208 -100258888 
1482.091 -99241536 -99215064 -99479048 -98919880 -98369224 -97674608 
1484.984 -97856920 -98528856 -99228232 -97036192 -102857992 -107693544 
1487.877 -102169384 -98843304 -101195784 -98897528 -104082472 -102601776 
1490.770 -108254496 -105732056 -99552816 -99535424 -99646928 -99638832 
1493.663 -98697792 -98555256 -97473856 -94379808 -96904768 -107740088 
1496.556 -109336392 -99127896 -97046616 -96992104 -108338560 -112671376 
1499.449 -101287056 -97025072 -97791720 -98722448 -98853144 -99482936 
1502.343 -99195144 -98100952 -97636480 -96414128 -93455440 -90516976 
1505.236 -97466064 -80189664 -73399144 -93186008 -108597816 -95144528 
1508.129 -92914272 -106234528 -102461872 -109095472 -110006704 -102317792 
1511.022 -99566120 -101046376 -116574392 -121540744 -105414344 -100695504 
1513.915 -98728832 -101344456 -106017712 -102400560 -97103800 -98779720 
1516.808 -90572416 -94232608 -108048200 -100169224 -97129144 -95964944 
1519.701 -104389848 -106136400 -92006048 -104063960 -98660656 -87871984 
1522.594 -100426192 -102440416 -95011544 -96232288 -95924872 -96851104 
1525.487 -107548704 -102926880 -97110440 -106772736 -110288920 -100434096 
1528.380 -99924960 -103167448 -101563640 -102370552 -101867272 -102414232 
1531.273 -105043120 -104122832 -96850944 -100805880 -99214248 -94251976 
1534.166 -109640960 -98810736 -98267280 -97840648 -97122552 -95612104 
1537.059 -94125656 -91655720 -89872896 -77640696 -77043000 -59730960 
1539.952 -66511064 -94765608 -85360368 -86532832 -113263000 -110726648 
1542.845 -93125128 -97661240 -99064624 -94532568 -104349832 -111721064 
1545.739 -103617104 -99159088 -99399104 -99369496 -99217472 -100465152 
1548.632 -99673176 -101714144 -105764168 -110586592 -111400576 -102236496 
1551.525 -100975632 -100375312 -99433216 -96596416 -94708720 -106382656 
1554.418 -115949200 -101520720 -95019048 -94926936 -92198976 -91340720 
1557.311 -106162624 -68308024 -58429808 -74141576 -69302288 -89716848 
1560.204 -128560600 -107334144 -96772512 -97913504 -99377168 -100122840 
1563.097 -99871560 -98730928 -97271136 -100287408 -101052416 -100179784 
1565.990 -100767704 -101554368 -101124672 -99751400 -97862160 -97025392 
1568.883 -90467512 -87674752 -109245488 -103612288 -99201080 -101206776 
1571.776 -102966112 -102168504 -101484752 -100712624 -100100776 -98446000 
1574.669 -95999104 -91605440 -94174920 -101069600 -101603928 -91410968 
1577.562 -93093592 -97594696 -100207544 -101266592 -102297360 -102912056 
1580.455 -103057432 -103254048 -104080320 -104230096 -104297960 -104613536 
1583.348 -104090168 -102706304 -102071712 -101934504 -102682856 -103179672 
1586.241 -103103736 -103053960 -103833328 -104410760 -104682192 -104410744 
1589.135 -103583376 -101552344 -102073640 -104145384 -103873088 -102316208 
1592.028 -102190224 -103073848 -103224248 -102952880 -101684880 -99169624 
1594.921 -100914264 -101770144 -100980776 -101486672 -103485320 -104083432 
1597.814 -103565752 -102564680 -102360176 -102376744 -102114312 -102520344 
1600.707 -103363776 -101956664 -102251344 -102936008 -101588240 -98416536 
1603.600 -99743272 -101817360 -101943992 -101835632 -101904400 -101773648 
1606.493 -101185560 -100050896 -101812728 -103867448 -103884800 -102203376 
1609.386 -98758208 -100265256 -101470264 -101837984 -102222208 -102554288 
1612.279 -102535408 -101809544 -102296696 -101686048 -100240136 -99241368 
1615.172 -96981040 -92108472 -93675016 -99267680 -101803960 -96396584 
1618.065 -98657144 -100718552 -101676720 -102550184 -102188816 -100809600 
1620.958 -98592592 -97805192 -97181616 -93330592 -89876976 -101645160 
1623.851 -107039800 -99419720 -100618344 -101392632 -103053392 -102662944 
1626.744 -101118288 -101184432 -105987952 -106849416 -100161384 -98861832 
1629.637 -100203408 -100921800 -100938168 -100368040 -100355184 -100364976 
1632.531 -100729576 -101631360 -101154784 -97099064 -99528568 -107093024 
1635.424 -62854692 -105306880 -92505680 -93707032 -100800592 -102364544 
1638.317 -98652584 -101058312 -103278688 -103544120 -101222504 -100985448 
1641.210 -101827384 -101380840 -100352944 -99753736 -100732832 -100375408 
1644.103 -98423472 -95654592 -93906048 -100888872 -104593816 -91964048 
1646.996 -95092368 -99482064 -94892320 -104718736 -102150768 -100324576 
1649.889 -99368544 -97139680 -92850808 -88128656 -86943880 -102338000 
1652.782 -23464650 -88925976 -78172744 -86713792 -116582896 -103692928 
1655.675 -100949480 -101412896 -100960608 -100898216 -101834904 -102330136 
1658.568 -102749848 -102150568 -102577656 -103260936 -102742376 -99876608 
1661.461 -97099392 -95713152 -104532512 -107137072 -100649712 -99613232 
1664.354 -102233176 -102957800 -103577696 -104367736 -105109416 -103966400 
1667.247 -102623256 -102353880 -98322096 -96338152 -117231032 -113862608 
1670.140 -97915080 -97334392 -106475560 -110754864 -102712528 -99615024 
1673.033 -99680600 -99014656 -96801712 -97469392 -122208952 -147073408 
1675.927 -115456792 -104179792 -104733984 -105104656 -103088264 -102462256 
1678.820 -101773504 -101969832 -100927472 -102452744 -104388160 -100242760 
1681.713 -97185200 -94025008 -98930432 -101385872 -82729920 -72400856 
1684.606 -66307024 -109580856 -100356144 -99306512 -101194128 -102942560 
1687.499 -102982240 -103734104 -104664456 -103519408 -101811832 -102513960 
1690.392 -103004336 -102732144 -104052952 -103291496 -102012184 -101011576 
1693.285 -100850008 -99748472 -97477080 -95527984 -113832560 -145312336 
1696.178 -117101320 -97712632 -94671192 -97289952 -96551312 -93319888 
1699.071 -91549736 -108502448 -121963680 -98674920 -136779600 -107861040 
1701.964 -100207072 -100860800 -99895432 -98372616 -101513024 -109982384 
1704.857 -106358896 -99032800 -105901536 -112324368 -104805048 -100961480 
1707.750 -104252960 -104849168 -103992168 -103196720 -103789192 -103869832 
1710.643 -104592080 -104408592 -104489360 -103912640 -102152896 -100376616 
1713.536 -103554904 -105622968 -102456192 -110338360 -109265264 -99292744 
1716.429 -96860264 -102866264 -105070296 -91148448 -99689424 -124243416 
1719.323 -106992776 -101904744 -104019552 -105950576 -105365576 -104429760 
1722.216 -104228408 -104345496 -104839104 -105172816 -104945584 -105293112 
1725.109 -104984136 -104544856 -103859608 -104149144 -104926560 -104580184 
1728.002 -104173512 -104140488 -102783656 -105292152 -104221072 -107628584 
1730.895 -105075728 -104426696 -101905568 -98614720 -103389320 -110442552 
1733.788 -94511976 -109181872 -126465024 -104047848 -100837848 -101922600 
1736.681 -102613344 -102080272 -101668224 -102072816 -101132776 -100190640 
1739.574 -106673584 -110923304 -102102336 -101583984 -103221536 -103565384 
1742.467 -104437456 -105245336 -103213728 -106293472 -104504208 -104055200 
1745.360 -102635216 -101006120 -101257504 -102747856 -99475040 -98111376 
1748.253 -104796784 -106482360 -103587512 -104549792 -103054136 -114128288 
1751.146 -125292808 -122510200 -107045976 -105089120 -104961520 -104538472 
1754.039 -103987792 -104511480 -104189184 -103660288 -103261008 -113528000 
1756.932 -119547200 -108901056 -104585048 -105012960 -104977056 -104293608 
1759.825 -103681432 -102404936 -100742752 -105628552 -117602408 -113768952 
1762.719 -105082512 -105657120 -105708168 -106310368 -106450776 -106559456 
1765.612 -105302768 -105173552 -104322160 -103369368 -107795984 -125188512 
1768.505 -121378368 -105228512 -103016672 -102111376 -99758872 -103219824 
1771.398 -102442336 -95489488 -103698816 -113813936 -106600360 -103089336 
1774.291 -103328224 -102406464 -105245560 -106672888 -105655816 -104591296 
1777.184 -104155928 -104323968 -105195688 -105071704 -103374440 -102959312 
1780.077 -104905040 -108307048 -109055800 -104635256 -105456336 -105487680 
1782.970 -105866136 -105520240 -105205208 -110379816 -120112496 -112446528 
1785.863 -105470760 -105180400 -105711048 -105514400 -104929928 -104395880 
1788.756 -105607208 -104791464 -103816096 -104537712 -113633304 -112278688 
1791.649 -100626832 -104429584 -115898984 -112878488 -103618264 -104672728 
1794.542 -105192864 -104815360 -103721072 -102653144 -104595864 -104498336 
1797.435 -104687000 -104523016 -103505088 -102546640 -106010600 -107199544 
1800.328 -103805360 -107607472 -113388544 -110812992 -112135496 -112085688 
1803.221 -106272232 -106015440 -105283624 -105081520 -103815112 -104947776 
1806.115 -105219464 -105538616 -105480112 -106123264 -104551680 -104462840 
1809.008 -104740848 -104918528 -104554704 -105556608 -105982896 -104419552 
1811.901 -104484680 -104918896 -104026176 -103903968 -104468640 -105296912 
1814.794 -105138272 -105580480 -105873248 -106718048 -107467632 -110121680 
1817.687 -109798320 -106473592 -104541976 -104394104 -104090304 -103789488 
1820.580 -103928744 -104918944 -104638608 -104746600 -104455376 -105105488 
1823.473 -104739920 -104263584 -104318272 -116682992 -121605096 -108615560 
1826.366 -103968536 -104106920 -103768048 -103159872 -102385728 -102164904 
1829.259 -96753016 -103887568 -115448312 -108067624 -104215056 -104646552 
1832.152 -104621040 -104689520 -106604072 -106012088 -104989512 -104889856 
1835.045 -105342824 -105460264 -105323080 -103987272 -102163592 -102325024 
1837.938 -103448656 -103721728 -104366400 -105230688 -105563128 -105231320 
1840.831 -105195112 -105073784 -105344104 -105176000 -103249728 -100831792 
1843.724 -107796624 -127827096 -117059232 -103162856 -103431360 -104556688 
1846.617 -105121536 -105576272 -106762632 -106420176 -105618144 -105895552 
1849.510 -105881920 -105510776 -104995832 -104616544 -104405656 -104147560 
1852.404 -103944792 -103820040 -104198528 -104891000 -104909136 -104788552 
1855.297 -104839320 -104912760 -104715264 -104590560 -104651640 -104888160 
1858.190 -104882976 -105221736 -105514048 -105788728 -106045592 -105596072 
1861.083 -105827432 -106217248 -105398840 -105068784 -104579000 -104440200 
1863.976 -103842048 -102999792 -103476488 -104197592 -103478880 -101435768 
1866.869 -101635216 -103439592 -102242512 -100879880 -105174360 -115387096 
1869.762 -112184288 -104938528 -104561464 -104636152 -105111808 -104550880 
1872.655 -103972336 -104060624 -105070216 -105651792 -105419744 -105413096 
1875.548 -105441240 -104585456 -103325136 -103305920 -104135416 -103848744 
1878.441 -103497368 -103962112 -104740128 -104687704 -105477456 -105920528 
1881.334 -105444760 -105240368 -105475608 -105670688 -105602872 -104907464 
1884.227 -103723376 -103305120 -104395376 -105076256 -105166168 -105120184 
1887.120 -104998920 -105201464 -104999896 -103583792 -106378584 -110283912 
1890.013 -108019024 -104110600 -104843944 -105068192 -105195360 -104861192 
1892.906 -104719088 -104581864 -104540072 -104263488 -103724256 -102962800 
1895.800 -104077024 -104563072 -104691016 -104867128 -105054912 -104593784 
1898.693 -104540672 -105153784 -105781344 -105939128 -105528224 -105020072 
1901.586 -105151280 -105419848 -105326840 -104839016 -104077448 -103262376 
1904.479 -103150568 -104054160 -104669648 -104892880 -104871808 -104745968 
1907.372 -104348968 -103223800 -103411224 -103834040 -104192752 -103238624 
1910.265 -103786032 -104816608 -105024928 -104589320 -104576544 -104637376 
1913.158 -105135384 -105277256 -104987416 -104650608 -104488544 -103752360 
1916.051 -103658952 -103523648 -102945600 -107227240 -114721016 -110172864 
1918.944 -104591336 -104733784 -104897488 -104901888 -104737000 -104585920 
1921.837 -104219056 -103605232 -104727808 -106535776 -105635656 -104585480 
1924.730 -104401568 -104309624 -104338416 -104581520 -104517400 -104637208 
1927.623 -104660128 -104737304 -104865624 -104978872 -104948848 -104875136 
1930.516 -104509144 -104224496 -104207888 -104149456 -104069448 -104498952 
1933.409 -105009264 -105286464 -105474632 -105414968 -105151128 -104944640 
1936.302 -104768224 -104619064 -104617672 -104515504 -104610104 -104704056 
1939.196 -104764240 -104995288 -104932448 -104746232 -104167952 -103449736 
1942.089 -106260960 -107518984 -107311640 -105095136 -104847424 -104412592 
1944.982 -103628688 -103476120 -103593496 -103257736 -104364208 -105048736 
1947.875 -105130640 -105328928 -105223384 -104978128 -104721704 -104766432 
1950.768 -104888968 -104595600 -104248152 -104605520 -104876920 -104468592 
1953.661 -104339400 -104140048 -103962136 -103715896 -104670232 -105608416 
1956.554 -105710968 -105545392 -105477048 -104901752 -104773384 -105562760 
1959.447 -106224888 -105842648 -105433872 -104351176 -104370352 -104825816 
1962.340 -104464408 -104127712 -103731104 -103711184 -104339464 -104624968 
1965.233 -104499376 -104283352 -103780024 -103987208 -105452136 -105579536 
1968.126 -104579136 -104522632 -104546832 -104722296 -104617704 -104479552 
1971.019 -104840264 -104991896 -104840872 -105037080 -104940552 -104708392 
1973.912 -104707992 -104873120 -104946480 -105089944 -104498216 -104332056 
1976.805 -104707976 -104890432 -104977440 -104841448 -103748032 -103859456 
1979.698 -104221680 -103706688 -103843440 -104691368 -105602760 -105260472 
1982.592 -104973568 -105023616 -104408304 -104349992 -104982944 -105157432 
1985.485 -105036456 -105061840 -104665432 -104191232 -104729152 -104963248 
1988.378 -104375272 -104870640 -104926448 -104566712 -104705064 -104321576 
1991.271 -105410032 -108270768 -106464032 -104460656 -104373144 -104765216 
1994.164 -104917592 -104422120 -104307528 -104752384 -105386864 -105568424 
1997.057 -105275424 -104918304 -104498312 -104354736 -104341448 -104763800 
1999.950 -104726968 -104509568 -104667912 -105092424 -105141792 -104707312 
2002.843 -104504608 -104799160 -105064288 -104980856 -104523536 -104605016 
2005.736 -104797288 -104701480 -104434568 -104325592 -104519872 -104628336 
2008.629 -104587112 -104804136 -104981512 -105056208 -104930032 -104869280 
2011.522 -105105440 -105148208 -105062320 -104850032 -104880040 -104768032 
2014.415 -104573824 -104548184 -104315176 -104172648 -104921456 -105727032 
2017.308 -105233728 -104691344 -104938216 -104894272 -104558128 -104596592 
2020.201 -104514448 -104608264 -105049128 -105467152 -105744624 -105509728 
2023.094 -104991224 -105012184 -104773960 -104907896 -105232920 -105204728 
2025.988 -105154072 -104696160 -104667056 -105664952 -105778496 -105022656 
2028.881 -104570048 -104558312 -104818712 -104239488 -103849520 -103630208 
2031.774 -104428648 -104810744 -104499104 -104318280 -104138840 -105553384 
2034.667 -106229952 -105723992 -105514976 -106358616 -105121088 -102570416 
2037.560 -104091656 -104618072 -104766504 -105429048 -105581600 -106568600 
2040.453 -106181968 -105163984 -106511824 -105731288 -104374864 -105074824 
2043.346 -103820152 -103501008 -105450040 -105788688 -105258696 -105691064 
2046.239 -106184160 -105500088 -105421848 -105783128 -105450888 -105432752 
2049.132 -105769232 -105423984 -105304928 -106209280 -105758240 -104550520 
2052.025 -105415952 -105642248 -105225544 -105104072 -105122720 -105045432 
2054.918 -106375768 -107776376 -106684592 -105857264 -105551144 -105037632 
2057.811 -105519040 -106299344 -106232960 -105993416 -107455144 -106975320 
2060.704 -104669792 -104179352 -105106856 -105752328 -105449848 -104402752 
2063.597 -104130496 -106083616 -107594984 -105623912 -104071080 -104071072 
2066.490 -104071064 -104071064 -104071056 -104071048 -104071040 -104071032 
2069.384 -104071032 -104071032 -104071024 -104071016 -104071008 -104071000 
2072.277 -104071000 -104070992 -104070984 -104070976 -104070968 -104070960 
2075.170 -104070960 -104070952 -104070944 -104070936 -104070928 -104070928 
2078.063 -104070928 -104070920 -104070912 -104070904 -104070904 -104070896 
2080.956 -104070888 -104070880 -104070872 -104070864 -104070864 -104070856 
2083.849 -104070848 -104070840 -104070832 -104070832 -104070824 -104070816 
2086.742 -104070816 -104070808 -104070800 -104070800 -104070792 -104070784 
2089.635 -104070776 -104070768 -104070768 -104070760 -104070752 -104070744 
2092.528 -104070736 -104070728 -104070728 -104070720 -104070712 -104070712 
2095.421 -104070704 -104070704 -104070696 -104070688 -104070680 -104070672 
2098.314 -104070672 -104070664 -104070656 -104070648 -104070640 -104070632 
2101.207 -104070632 -104070624 -104070616 -104070608 -104070600 -104070600 
2104.100 -104070600 -104070592 -104070584 -104070576 -104070568 -104070568 
2106.993 -104070560 -104070552 -104070544 -104070536 -104070536 -104070528 
2109.886 -104070520 -104070512 -104070504 -104070496 -104070496 -104070496 
2112.780 -104070488 -104070480 -104070472 -104070472 -104070464 -104070456 
2115.673 -104070448 -104070440 -104070432 -104070432 -104070424 -104070416 
2118.566 -104070408 -104070400 -104070400 -104070392 -104070384 -104070384 
2121.459 -104070376 -104070376 -104070368 -104070360 -104070352 -104070344 
2124.352 -104070336 -104070336 -104070328 -104070320 -104070312 -104070304 
2127.245 -104070304 -104070296 -104070288 -104070280 -104070280 -104070272 
2130.138 -104070272 -104070264 -104070256 -104070248 -104070240 -104070240 
2133.031 -104070232 -104070224 -104070216 -104070208 -104070200 -104070200 
2135.924 -104070192 -104070184 -104070176 -104070168 -104070168 -104070168 
2138.817 -104070160 -104070152 -104070144 -104070144 -104070136 -104070128 
2141.710 -104070120 -104070112 -104070104 -104070104 -104070096 -104070088 
2144.603 -104070080 -104070072 -104070072 -104070064 -104070056 -104070056 
2147.496 -104070048 -104070040 -104070040 -104070032 -104070024 -104070016 
2150.389 -104070008 -104070008 -104070000 -104069992 -104069984 -104069976 
2153.282 -104069968 -104069968 -104069960 -104069952 -104069952 -104069944 
2156.176 -104069944 -104069936 -104069928 -104069920 -104069912 -104069904 
2159.069 -104069904 -104069896 -104069888 -104069880 -104069872 -104069872 
2161.962 -104069864 -104069856 -104069848 -104069840 -104069840 -104069840 
2164.855 -104069832 -104069824 -104069816 -104069808 -104069808 -104069800 
2167.748 -104069792 -104069784 -104069776 -104069776 -104069768 -104069760 
2170.641 -104069752 -104069744 -104069736 -104069736 -104069736 -104069728 
2173.534 -104069720 -104069712 -104069712 -104069704 -104069696 -104069688 
2176.427 -104069680 -104069672 -104069672 -104069664 -104069656 -104069648 
2179.320 -104069640 -104069640 -104069632 -104069624 -104069624 -104069616 
2182.213 -104069608 -104069608 -104069600 -104069592 -104069584 -104069576 
2185.106 -104069576 -104069568 -104069560 -104069552 -104069544 -104069544 
2187.999 -104069536 -104069528 -104069520 -104069520 -104069512 -104069512 
2190.892 -104069504 -104069496 -104069488 -104069480 -104069480 -104069472 
2193.785 -104069464 -104069456 -104069448 -104069440 -104069440 -104069432 
2196.678 -104069424 -104069416 -104069408 -104069408 -104069408 -104069400 
2199.572 -104069392 -104069384 -104069376 -104069376 -104069368 -104069360 
2202.465 -104069352 -104069344 -104069344 -104069336 -104069328 -104069320 
2205.358 -104069312 -104069312 -104069304 -104069296 -104069296 -104069288 
2208.251 -104069280 -104069280 -104069272 -104069264 -104069256 -104069248 
2211.144 -104069248 -104069240 -104069232 -104069224 -104069216 -104069208 
2214.037 -104069208 -104069200 -104069192 -104069192 -104069184 -104069184 
2216.930 -104069176 -104069168 -104069160 -104069152 -104069144 -104069144 
2219.823 -104069136 -104069128 -104069120 -104069112 -104069112 -104069104 
2222.716 -104069096 -104069088 -104069080 -104069080 -104069080 -104069072 
2225.609 -104069064 -104069056 -104069048 -104069048 -104069040 -104069032 
2228.502 -104069024 -104069016 -104069016 -104069008 -104069000 -104068992 
2231.395 -104068984 -104068976 -104068976 -104068976 -104068968 -104068960 
2234.288 -104068952 -104068952 -104068944 -104068936 -104068928 -104068920 
2237.181 -104068912 -104068912 -104068904 -104068896 -104068888 -104068880 
2240.074 -104068880 -104068872 -104068864 -104068864 -104068856 -104068848 
2242.968 -104068848 -104068840 -104068832 -104068824 -104068816 -104068816 
2245.861 -104068808 -104068800 -104068792 -104068784 -104068784 -104068776 
2248.754 -104068768 -104068760 -104068760 -104068752 -104068752 -104068744 
2251.647 -104068736 -104068728 -104068720 -104068720 -104068712 -104068704 
2254.540 -104068696 -104068688 -104068680 -104068680 -104068672 -104068664 
2257.433 -104068656 -104068648 -104068648 -104068648 -104068640 -104068632 
2260.326 -104068624 -104068616 -104068616 -104068608 -104068600 -104068592 
2263.219 -104068584 -104068584 -104068576 -104068568 -104068560 -104068552 
2266.112 -104068544 -104068544 -104068544 -104068536 -104068528 -104068520 
2269.005 -104068520 -104068512 -104068504 -104068496 -104068488 -104068488 
2271.898 -104068480 -104068472 -104068464 -104068456 -104068448 -104068448 
2274.791 -104068440 -104068432 -104068432 -104068424 -104068424 -104068416 
2277.684 -104068408 -104068400 -104068392 -104068384 -104068384 -104068376 
2280.577 -104068368 -104068360 -104068352 -104068352 -104068344 -104068336 
2283.470 -104068328 -104068320 -104068320 -104068320 -104068312 -104068304 
2286.364 -104068296 -104068288 -104068288 -104068280 -104068272 -104068264 
2289.257 -104068256 -104068256 -104068248 -104068240 -104068232 -104068224 
2292.150 -104068216 -104068216 -104068216 -104068208 -104068200 -104068192 
2295.043 -104068192 -104068184 -104068176 -104068168 -104068160 -104068152 
2297.936 -104068152 -104068144 -104068136 -104068128 -104068120 -104068120 
2300.829 -104068112 -104068104 -104068104 -104068096 -104068088 -104068088 
2303.722 -104068080 -104068072 -104068064 -104068056 -104068056 -104068048 
2306.615 -104068040 -104068032 -104068024 -104068016 -104068016 -104068008 
2309.508 -104068000 -104068000 -104067992 -104067992 -104067984 -104067976 
2312.401 -104067968 -104067960 -104067960 -104067952 -104067944 -104067936 
2315.294 -104067928 -104067920 -104067920 -104067912 -104067904 -104067896 
2318.187 -104067888 -104067888 -104067888 -104067880 -104067872 -104067864 
2321.080 -104067856 -104067856 -104067848 -104067840 -104067832 -104067824 
2323.973 -104067824 -104067816 -104067808 -104067800 -104067792 -104067784 
2326.866 -104067784 -104067784 -104067776 -104067768 -104067760 -104067760 
2329.760 -104067752 -104067744 -104067736 -104067728 -104067720 -104067720 
2332.653 -104067712 -104067704 -104067696 -104067688 -104067688 -104067680 
2335.546 -104067672 -104067672 -104067664 -104067664 -104067656 -104067648 
2338.439 -104067640 -104067632 -104067624 -104067624 -104067616 -104067608 
2341.332 -104067600 -104067592 -104067592 -104067584 -104067576 -104067568 
2344.225 -104067568 -104067560 -104067560 -104067552 -104067544 -104067536 
2347.118 -104067528 -104067528 -104067520 -104067512 -104067504 -104067496 
2350.011 -104067488 -104067488 -104067480 -104067472 -104067464 -104067456 
2352.904 -104067456 -104067456 -104067448 -104067440 -104067432 -104067432 
2355.797 -104067424 -104067416 -104067408 -104067400 -104067392 -104067392 
2358.690 -104067384 -104067376 -104067368 -104067360 -104067360 -104067352 
2361.583 -104067344 -104067344 -104067336 -104067328 -104067328 -104067320 
2364.476 -104067312 -104067304 -104067296 -104067296 -104067288 -104067280 
2367.369 -104067272 -104067264 -104067256 -104067256 -104067248 -104067240 
2370.262 -104067240 -104067232 -104067232 -104067224 -104067216 -104067208 
2373.156 -104067200 -104067192 -104067192 -104067184 -104067176 -104067168 
2376.049 -104067160 -104067160 -104067152 -104067144 -104067136 -104067128 
2378.942 -104067128 -104067128 -104067120 -104067112 -104067104 -104067096 
2381.835 -104067096 -104067088 -104067080 -104067072 -104067064 -104067064 
2384.728 -104067056 -104067048 -104067040 -104067032 -104067024 -104067024 
2387.621 -104067024 -104067016 -104067008 -104067000 -104067000 -104066992 
2390.514 -104066984 -104066976 -104066968 -104066960 -104066960 -104066952 
2393.407 -104066944 -104066936 -104066928 -104066928 -104066920 -104066912 
2396.300 -104066912 -104066904 -104066904 -104066896 -104066888 -104066880 
2399.193 -104066872 -104066864 -104066864 -104066856 -104066848 -104066840 
2402.086 -104066832 -104066832 -104066824 -104066816 -104066808 -104066808 
2404.979 -104066800 -104066800 -104066792 -104066784 -104066776 -104066768 
2407.872 -104066768 -104066760 -104066752 -104066744 -104066736 -104066728 
2410.765 -104066728 -104066720 -104066712 -104066704 -104066696 -104066696 
2413.658 -104066696 -104066688 -104066680 -104066672 -104066664 -104066664 
2416.552 -104066656 -104066648 -104066640 -104066632 -104066632 -104066624 
2419.445 -104066616 -104066608 -104066600 -104066600 -104066592 -104066584 
2422.338 -104066584 -104066576 -104066568 -104066568 -104066560 -104066552 
2425.231 -104066544 -104066536 -104066536 -104066528 -104066520 -104066512 
2428.124 -104066504 -104066496 -104066496 -104066488 -104066480 -104066480 
2431.017 -104066472 -104066472 -104066464 -104066456 -104066448 -104066440 
2433.910 -104066432 -104066432 -104066424 -104066416 -104066408 -104066400 
2436.803 -104066400 -104066392 -104066384 -104066376 -104066368 -104066368 
2439.696 -104066368 -104066360 -104066352 -104066344 -104066336 -104066336 
2442.589 -104066328 -104066320 -104066312 -104066304 -104066304 -104066296 
2445.482 -104066288 -104066280 -104066272 -104066264 -104066264 -104066264 
2448.375 -104066256 -104066248 -104066240 -104066240 -104066232 -104066224 
2451.268 -104066216 -104066208 -104066200 -104066200 -104066192 -104066184 
2454.161 -104066176 -104066168 -104066168 -104066160 -104066152 -104066152 
2457.054 -104066144 -104066136 -104066136 -104066128 -104066120 -104066112 
2459.948 -104066104 -104066104 -104066096 -104066088 -104066080 -104066072 
2462.841 -104066072 -104066064 -104066056 -104066048 -104066048 -104066040 
2465.734 -104066040 -104066032 -104066024 -104066016 -104066008 -104066008 
2468.627 -104066000 -104065992 -104065984 -104065976 -104065968 -104065968 
2471.520 -104065960 -104065952 -104065944 -104065936 -104065936 -104065936 
2474.413 -104065928 -104065920 -104065912 -104065904 -104065904 -104065896 
2477.306 -104065888 -104065880 -104065872 -104065872 -104065864 -104065856 
2480.199 -104065848 -104065840 -104065840 -104065832 -104065832 -104065824 
2483.092 -104065816 -104065808 -104065808 -104065800 -104065792 -104065784 
2485.985 -104065776 -104065776 -104065768 -104065760 -104065752 -104065744 
2488.878 -104065736 -104065736 -104065728 -104065720 -104065720 -104065712 
2491.771 -104065712 -104065704 -104065696 -104065688 -104065680 -104065672 
2494.664 -104065672 -104065664 -104065656 -104065648 -104065640 -104065640 
2497.557 -104065632 -104065624 -104065616 -104065608 -104065608 -104065608 
2500.450 -104065600 -104065592 -104065584 -104065576 -104065576 -104065568 
2503.344 -104065560 -104065552 -104065544 -104065544 -104065536 -104065528 
2506.237 -104065520 -104065512 -104065504 -104065504 -104065504 -104065496 
2509.130 -104065488 -104065480 -104065480 -104065472 -104065464 -104065456 
2512.023 -104065448 -104065440 -104065440 -104065432 -104065424 -104065416 
2514.916 -104065408 -104065408 -104065400 -104065392 -104065392 -104065384 
2517.809 -104065376 -104065376 -104065368 -104065360 -104065352 -104065344 
2520.702 -104065344 -104065336 -104065328 -104065320 -104065312 -104065304 
2523.595 -104065304 -104065296 -104065288 -104065288 -104065280 -104065280 
2526.488 -104065272 -104065264 -104065256 -104065248 -104065248 -104065240 
2529.381 -104065232 -104065224 -104065216 -104065208 -104065208 -104065200 
2532.274 -104065192 -104065184 -104065176 -104065176 -104065176 -104065168 
2535.167 -104065160 -104065152 -104065144 -104065144 -104065136 -104065128 
2538.060 -104065120 -104065112 -104065112 -104065104 -104065096 -104065088 
2540.953 -104065080 -104065072 -104065072 -104065072 -104065064 -104065056 
2543.846 -104065048 -104065048 -104065040 -104065032 -104065024 -104065016 
2546.740 -104065016 -104065008 -104065000 -104064992 -104064984 -104064976 
2549.633 -104064976 -104064968 -104064960 -104064960 -104064952 -104064952 
2552.526 -104064944 -104064936 -104064928 -104064920 -104064912 -104064912 
2555.419 -104064904 -104064896 -104064888 -104064880 -104064880 -104064872 
2558.312 -104064864 -104064856 -104064848 -104064848 -104064848 -104064840 
2561.205 -104064832 -104064824 -104064816 -104064816 -104064808 -104064800 
2564.098 -104064792 -104064784 -104064776 -104064776 -104064768 -104064760 
2566.991 -104064752 -104064744 -104064744 -104064744 -104064736 -104064728 
2569.884 -104064720 -104064720 -104064712 -104064704 -104064696 -104064688 
2572.777 -104064680 -104064680 -104064672 -104064664 -104064656 -104064648 
2575.670 -104064648 -104064640 -104064632 -104064632 -104064624 -104064616 
2578.563 -104064616 -104064608 -104064600 -104064592 -104064584 -104064584 
2581.456 -104064576 -104064568 -104064560 -104064552 -104064544 -104064544 
2584.349 -104064536 -104064528 -104064528 -104064520 -104064520 -104064512 
2587.242 -104064504 -104064496 -104064488 -104064488 -104064480 -104064472 
2590.135 -104064464 -104064456 -104064448 -104064448 -104064440 -104064432 
2593.029 -104064424 -104064416 -104064416 -104064416 -104064408 -104064400 
2595.922 -104064392 -104064384 -104064384 -104064376 -104064368 -104064360 
2598.815 -104064352 -104064352 -104064344 -104064336 -104064328 -104064320 
2601.708 -104064312 -104064312 -104064312 -104064304 -104064296 -104064288 
2604.601 -104064288 -104064280 -104064272 -104064264 -104064256 -104064248 
2607.494 -104064248 -104064240 -104064232 -104064224 -104064216 -104064216 
2610.387 -104064208 -104064200 -104064200 -104064192 -104064192 -104064184 
2613.280 -104064176 -104064168 -104064160 -104064152 -104064152 -104064144 
2616.173 -104064136 -104064128 -104064120 -104064120 -104064112 -104064104 
2619.066 -104064096 -104064096 -104064088 -104064088 -104064080 -104064072 
2621.959 -104064064 -104064056 -104064056 -104064048 -104064040 -104064032 
2624.852 -104064024 -104064016 -104064016 -104064008 -104064000 -104063992 
2627.745 -104063984 -104063984 -104063984 -104063976 -104063968 -104063960 
2630.638 -104063960 -104063952 -104063944 -104063936 -104063928 -104063920 
2633.531 -104063920 -104063912 -104063904 -104063896 -104063888 -104063888 
2636.425 -104063880 -104063872 -104407648 -104340704 -104197952 -104064496 
2639.318 -104081920 -104163432 -104303824 -104122112 -103925264 -104023784 
2642.211 -104077600 -103893120 -104086000 -104008424 -103989600 -103884496 
2645.104 -103533856 -103498040 -103908040 -104174152 -104231624 -104421584 
2647.997 -104064552 -103843200 -103978608 -103964664 -103920848 -104344624 
2650.890 -104819168 -104710384 -104300608 -104135576 -104297104 -103963464 
2653.783 -103956472 -104205328 -104439840 -104133064 -103722408 -103771392 
2656.676 -104116128 -104139880 -104162392 -104215648 -104075440 -103384176 
2659.569 -103578024 -103782744 -103483448 -103062616 -103095672 -103429608 
2662.462 -103485808 -103558376 -103687648 -104223096 -104071176 -103690296 
2665.355 -104077952 -104378600 -103838152 -103513048 -104058736 -104338888 
2668.248 -104311816 -104010400 -104387440 -104585112 -104588096 -104406048 
2671.141 -103835216 -103702208 -104099944 -104170440 -104004096 -103928960 
2674.034 -103968464 -103928328 -103631688 -103418272 -103492728 -103578720 
2676.927 -103785528 -104195416 -103807720 -103356720 -103402528 -103602944 
2679.821 -104175792 -104364880 -104165944 -104170032 -104076288 -103922224 
2682.714 -103842424 -104184232 -104465920 -104465232 -103947128 -103841712 
2685.607 -103903640 -103929592 -103945944 -103603776 -103690680 -103896760 
2688.500 -104030976 -104057512 -104232624 -103916320 -103640272 -103903040 
2691.393 -104006288 -103924904 -103934792 -104002360 -103821048 -103590472 
2694.286 -103594008 -103759984 -103657376 -103462728 -103838440 -104086208 
2697.179 -103869752 -103828280 -103865456 -104005456 -104257536 -103895928 
2700.072 -103503448 -103524584 -103954864 -104073176 -104026656 -103963488 
2702.965 -104107352 -104022128 -103912008 -103867272 -103870752 -103627808 
2705.858 -103584912 -103557240 -103481984 -103621688 -104035152 -104408656 
2708.751 -104293400 -103696808 -103630960 -103724400 -103440888 -103153560 
2711.644 -103236440 -103217272 -103269224 -103436040 -103458496 -103416920 
2714.537 -103454336 -103449840 -103437040 -103246328 -103305456 -103376984 
2717.430 -103241672 -103163752 -103024672 -102961488 -103064312 -102972848 
2720.323 -103117736 -103178056 -103229120 -102956864 -102784448 -102599040 
2723.217 -102698016 -102654144 -102543760 -102302712 -102189192 -101982240 
2726.110 -101512496 -101087128 -101395032 -101806848 -101979712 -102039768 
2729.003 -101699520 -101555896 -101689232 -101549024 -101423480 -101409984 
2731.896 -101324696 -101209256 -101258112 -101240112 -101226576 -101090336 
2734.789 -101098024 -101074528 -101015152 -100982168 -101028744 -101129832 
2737.682 -101134416 -101581288 -101367304 -100665808 -101003248 -101325392 
2740.575 -101281440 -100972184 -100461904 -100758552 -100793384 -100253552 
2743.468 -100819584 -101301296 -101561400 -100925576 -100820560 -101688928 
2746.361 -101690728 -100673368 -100911128 -100397808 -100825664 -103315208 
2749.254 -102997128 -101801896 -101927784 -102305912 -102171568 -101816048 
2752.147 -101924264 -102113728 -102258152 -102405688 -102589048 -102408744 
2755.040 -102153960 -102171552 -101920920 -101579800 -101887848 -101805760 
2757.933 -102019720 -102343328 -102355720 -102362568 -102427008 -102485424 
2760.826 -102446032 -102490376 -102571744 -102615696 -102427752 -102282632 
2763.719 -102492496 -102585232 -102542896 -102328440 -102120576 -102169224 
2766.613 -102335680 -102441224 -102401432 -102283904 -102338328 -102295056 
2769.506 -102330464 -102469824 -102526528 -102434544 -102168608 -102040736 
2772.399 -102247128 -102639992 -102696568 -102327864 -102586648 -102717952 
2775.292 -102788080 -102730576 -102507072 -102396344 -102519352 -102457032 
2778.185 -102456632 -102407576 -102364368 -102501432 -102573256 -102960776 
2781.078 -103228792 -102738272 -102786488 -103068712 -102753384 -102521400 
2783.971 -102419880 -102386192 -102875688 -102699704 -102687896 -102836008 
2786.864 -102660136 -102187104 -102277864 -102488928 -102514144 -102679544 
2789.757 -102858880 -102626824 -102622320 -102597360 -102468584 -102244528 
2792.650 -102459768 -102722464 -102750624 -102831928 -102913192 -102700456 
2795.543 -102664600 -102703024 -102620504 -102317576 -102130472 -102362544 
2798.436 -102497440 -102504080 -102512840 -102324600 -102478432 -102511072 
2801.329 -102375480 -102245280 -102265640 -102272720 -102274600 -102392784 
2804.222 -102378016 -102346824 -102172808 -101945240 -101832576 -101930976 
2807.115 -102126048 -102005344 -101998680 -101727984 -101691800 -101713400 
2810.009 -101753168 -101982320 -101967192 -101885896 -101751552 -101503248 
2812.902 -101431856 -101348592 -101449960 -101449544 -101282824 -101231528 
2815.795 -101288080 -101251528 -101267848 -101091968 -100936160 -100779648 
2818.688 -100507248 -100748000 -101105016 -100782568 -100560896 -100672960 
2821.581 -100694952 -100698856 -100542352 -100450184 -100483928 -100227752 
2824.474 -99924944 -99732064 -99781256 -100299712 -100354856 -99949064 
2827.367 -99731840 -99228496 -99026592 -99570088 -99859128 -99759368 
2830.260 -99480424 -99273312 -99284288 -99169288 -99549544 -99430232 
2833.153 -98762880 -98354536 -98452480 -98462640 -98500200 -98488960 
2836.046 -98823936 -98913808 -98487448 -98145664 -97811312 -97661824 
2838.939 -97850304 -97743520 -97533456 -97194200 -97376176 -97413280 
2841.832 -97163368 -96882088 -96796976 -96461312 -96365496 -96229624 
2844.725 -96097128 -96026288 -95953952 -95700392 -95276248 -94683816 
2847.618 -94295384 -93835544 -93717856 -93465376 -93185824 -93177856 
2850.511 -92920504 -92397616 -91687024 -91056824 -90934968 -90422872 
2853.405 -89707584 -88700536 -88100104 -87760776 -87443616 -86764536 
2856.298 -86336192 -85742336 -85023392 -83525240 -82157720 -81429648 
2859.191 -80732976 -79699176 -78491288 -77429176 -76755424 -75668040 
2862.084 -74584992 -73798192 -73198336 -71919368 -70795152 -69885200 
2864.977 -69036408 -68443432 -67604784 -66927204 -66567780 -65792164 
2867.870 -64392612 -63356584 -62743872 -62429696 -62158220 -61690124 
2870.763 -61240700 -60822060 -60467768 -59679180 -58564892 -58064676 
2873.656 -58372008 -58102108 -57621488 -57734628 -57497952 -57586332 
2876.549 -57978192 -57890812 -57170772 -56561368 -56129772 -56110708 
2879.442 -56718068 -56882912 -56805076 -56882020 -56882536 -57098580 
2882.335 -58015612 -58146188 -56955820 -57268152 -58507596 -59539840 
2885.228 -60049624 -60609408 -61885760 -63160092 -63602060 -63524216 
2888.121 -63369340 -63578324 -64242804 -64869524 -65210900 -65239116 
2891.014 -65357788 -65437884 -65964536 -66261040 -66267744 -65932408 
2893.907 -65565796 -65776260 -65884964 -66671224 -67533904 -68281200 
2896.801 -69182176 -69847520 -69843944 -69097448 -68832840 -68571584 
2899.694 -67448792 -67147952 -67659992 -67629080 -66922160 -66566700 
2902.587 -66939280 -66840456 -66191540 -65092176 -64193504 -63643708 
2905.480 -62963888 -63034384 -63741312 -64521372 -65185800 -65393792 
2908.373 -64778028 -64127752 -62832864 -61021920 -59840888 -59662016 
2911.266 -59870392 -58775872 -57622268 -56907360 -55905628 -54744652 
2914.159 -53664744 -51664880 -49961236 -50081320 -48331276 -45770632 
2917.052 -46085408 -47349324 -49663372 -50607220 -49173640 -47389812 
2919.945 -46401704 -46729780 -45965456 -44312136 -43616932 -43131644 
2922.838 -42463280 -41401192 -41362696 -40620448 -39054576 -38368428 
2925.731 -37173944 -34382440 -29957242 -30436226 -35996660 -40176744 
2928.624 -42074224 -42189580 -41926960 -41501820 -41770936 -41402964 
2931.517 -40351572 -40339840 -41099340 -40638312 -40288100 -41194336 
2934.410 -42762440 -42669060 -42417204 -42713052 -42505948 -40838864 
2937.303 -37749500 -38814652 -45085596 -53110832 -57110200 -57376376 
2940.197 -57115740 -57648636 -58401916 -59512592 -60540184 -61942732 
2943.090 -63287048 -63473984 -64631520 -66034592 -67089216 -67733296 
2945.983 -67510296 -67703696 -67412360 -63217684 -56761884 -64451648 
2948.876 -77207312 -82479312 -82307344 -81576640 -81639616 -81481360 
2951.769 -81253160 -81994752 -82218744 -81752656 -81433736 -81808480 
2954.662 -82402792 -82540736 -82358560 -81691656 -81134904 -80651520 
2957.555 -77093440 -65734036 -65654092 -84445656 -91199464 -91788288 
2960.448 -90730904 -89487480 -89321888 -89145720 -88947896 -88969264 
2963.341 -88709232 -88455856 -88993704 -89211992 -89487104 -89333208 
2966.234 -88140176 -87124584 -85352936 -84045696 -80231000 -73693984 
2969.127 -85015784 -93659064 -94355712 -93464464 -92855008 -90672904 
2972.020 -88704984 -90413440 -91215248 -90004408 -88266776 -87947104 
2974.913 -88752176 -89049992 -88839192 -87999688 -86137248 -84691560 
2977.806 -83671896 -79797072 -70423488 -79236776 -89968408 -91519744 
2980.699 -89999728 -88613416 -87677008 -86928656 -86176392 -85152136 
2983.593 -83715320 -81937464 -81019048 -80307744 -79580840 -79242952 
2986.486 -78258568 -77514632 -76861408 -75424688 -71567192 -64790444 
2989.379 -73677184 -80170944 -79750880 -78127368 -76674720 -75363656 
2992.272 -74267312 -72908288 -71721056 -71710616 -72061088 -71577944 
2995.165 -70918464 -69846152 -68385792 -67479200 -68261832 -68191584 
2998.058 -65361328 -61884560 -57846212 -61512088 -65917076 -67179192 
3000.951 -66347724 -64931288 -64734368 -64989744 -64980492 -64341852 
3003.844 -64795568 -65740988 -65281564 -65040016 -66336900 -66653384 
3006.737 -66133312 -66499496 -66975772 -66714376 -66500260 -67112272 
3009.630 -68602768 -68541032 -68349256 -67102520 -65976812 -65187752 
3012.523 -61402640 -59661388 -59316416 -56741856 -51872788 -43650104 
3015.416 -42755992 -38201220 -30333428 -19196464 -12187697 -11691932 
3018.309 -33127002 -62485852 -76325224 -80439896 -79767824 -78379656 
3021.202 -77741192 -78767472 -79979392 -79716504 -78882384 -78195704 
3024.095 -78558680 -79214496 -79594800 -79630512 -80094128 -80965312 
3026.989 -81795424 -83015216 -84074096 -81417624 -81014256 -87988824 
3029.882 -90716552 -90038616 -89262344 -89944096 -90288576 -90837408 
3032.775 -91085224 -90928976 -90562512 -90482744 -91329824 -91894560 
3035.668 -91007184 -89856952 -89925816 -90903040 -90874920 -87997824 
3038.561 -85594680 -91063768 -94988512 -95558952 -95149944 -95110744 
3041.454 -94451800 -94019920 -94569120 -94857760 -94569368 -93427720 
3044.347 -92207232 -92477672 -92892720 -92471984 -93226472 -95098488 
3047.240 -94604704 -91302920 -88666752 -96590184 -100660768 -100075616 
3050.133 -99178808 -98306920 -97371016 -95698152 -95619624 -95660032 
3053.026 -95579704 -95693944 -96112704 -96259344 -96652688 -96809352 
3055.919 -95843512 -94495064 -93513048 -86916208 -82757288 -96358384 
3058.812 -100146536 -99923816 -100686160 -99914504 -99092384 -99451680 
3061.705 -99775808 -99465168 -99428504 -99643336 -99168888 -97951000 
3064.598 -96692064 -96843544 -97640712 -96810744 -92262360 -82627400 
3067.491 -85843472 -98485552 -101861096 -102370096 -102211424 -101392720 
3070.385 -101200864 -101429344 -100908872 -100593528 -100894880 -100862888 
3073.278 -100099064 -99290624 -99083096 -99499552 -99425224 -97472120 
3076.171 -91176736 -84171392 -95555936 -101077792 -101082528 -101071728 
3079.064 -101062616 -100200048 -100056160 -99931552 -99632888 -99300296 
3081.957 -100033944 -99249728 -98520392 -99045264 -99512168 -99772224 
3084.850 -98077696 -92926472 -83842840 -91608344 -100859072 -102136648 
3087.743 -101989352 -102791288 -102767232 -102008424 -100525416 -100964960 
3090.636 -101659424 -102039544 -101236176 -100305720 -101306400 -101728400 
3093.529 -100426504 -99678392 -96720992 -88578648 -89883496 -100451152 
3096.422 -102988536 -102852288 -103408608 -104115624 -103289624 -101404496 
3099.315 -100755960 -101431888 -102062768 -101846640 -101250496 -101813328 
3102.208 -101616432 -100779120 -99884880 -97132008 -89947896 -90817816 
3105.101 -101033856 -103712520 -103034800 -103271568 -104529720 -104229320 
3107.994 -102987632 -102615680 -103228840 -103784928 -103205408 -102621392 
3110.887 -102760248 -102624240 -101176176 -99993128 -98135568 -93481512 
3113.781 -97116568 -102431024 -102701848 -102847840 -103382800 -103841800 
3116.674 -103711928 -102609584 -103191168 -103698496 -103565984 -103255296 
3119.567 -103321208 -103657944 -102423272 -101160584 -99914792 -97585088 
3122.460 -94567160 -98862664 -102286896 -103949496 -105699824 -107342552 
3125.353 -106909360 -105831920 -104419640 -103602000 -103022376 -104466824 
3128.246 -105227000 -104656400 -103681648 -104254656 -104076008 -102840304 
3131.139 -102467368 -103550680 -103061616 -101639864 -101747856 -103983592 
3134.032 -105681088 -105951600 -104884760 -104990088 -106370176 -106588600 
3136.925 -105002744 -102542224 -102892208 -103699168 -103641624 -102614888 
3139.818 -101869608 -103354520 -105228192 -104689120 -103791384 -103333280 
3142.711 -103634160 -104408816 -104874944 -105319200 -104955736 -104811296 
3145.604 -105450520 -105252424 -104374216 -103831112 -104845144 -105297376 
3148.497 -105042712 -105472448 -105711744 -105202984 -103644528 -102903672 
3151.390 -103501408 -103954416 -104984160 -105531176 -105638336 -105963216 
3154.283 -105650016 -104814048 -104217272 -103888072 -104431464 -105317080 
3157.177 -105795208 -106425000 -105711416 -104930944 -104308472 -103702320 
3160.070 -103734560 -104150944 -104164752 -104762000 -105379432 -105884776 
3162.963 -105733320 -105231648 -104859296 -104774312 -104977424 -105006512 
3165.856 -105691936 -106281496 -105610528 -104954592 -104634056 -104408992 
3168.749 -104360184 -104578384 -104571440 -104556560 -105022936 -105035112 
3171.642 -105023712 -105093336 -104759488 -104716648 -105019104 -105807792 
3174.535 -106103888 -105628000 -105386432 -105639712 -105398392 -104662944 
3177.428 -104103320 -103062112 -103009432 -104135016 -104899616 -105552536 
3180.321 -105127072 -104814240 -104590824 -104382704 -104579840 -104729216 
3183.214 -105029912 -105274016 -104823568 -104536544 -103991696 -104187672 
3186.107 -104932216 -104900552 -104824200 -105584568 -105668144 -105081944 
3189.000 -104724480 -105145112 -105584784 -105673336 -105247256 -105011720 
3191.893 -104694208 -104652568 -105049920 -104772616 -105339160 -106098112 
3194.786 -105861984 -104956224 -105073792 -105466736 -105285584 -104704792 
3197.679 -103952536 -103822840 -104731120 -104859784 -104424824 -104025032 
3200.573 -104324864 -104049824 -105272584 -106260080 -105806392 -104275976 
3203.466 -103546592 -105885584 -106655776 -106959840 -106670672 -106000856 
3206.359 -105571864 -104566216 -104253264 -105771832 -105740888 -103465856 
3209.252 -103234264 -102385096 -102619488 -104160488 -107013280 -108626768 
3212.145 -106781320 -104916456 -105753752 -105138432 -104081936 -104134472 
3215.038 -106150160 -106558312 -104183064 -104517464 -107950456 -109338440 
3217.931 -107863208 -103742264 -100774240 -101717696 -105183040 -106132328 
3220.824 -105228320 -105499896 -105646848 -105460136 -105171088 -106030824 
3223.717 -106275432 -106335696 -106203288 -106159176 -105207104 -105029152 
3226.610 -104938848 -104030624 -104491616 -105857944 -106025480 -105426664 
3229.503 -104016720 -104364632 -105532320 -105775016 -106511408 -106358416 
3232.396 -105776992 -105039112 -104922600 -105453912 -105640360 -105628512 
3235.289 -105587424 -105459624 -105472304 -105724176 -105469256 -104764208 
3238.182 -105449120 -106652056 -106454600 -105713368 -105616312 -105232056 
3241.075 -105236032 -105694880 -105969640 -105776624 -105649408 -105533776 
3243.969 -106390264 -106053552 -104624472 -104755728 -105177648 -104898088 
3246.862 -105575656 -105737768 -105732288 -105922400 -106411504 -106532640 
3249.755 -106485792 -106272880 -105915112 -105882760 -106016824 -105924168 
3252.648 -105590736 -105480416 -105929520 -105305960 -105463472 -105996224 
3255.541 -104956784 -104843568 -105496728 -105626032 -105834200 -106370448 
3258.434 -106237280 -106228384 -106518944 -106104616 -105073928 -105253288 
3261.327 -105694280 -105259744 -105716232 -106148648 -106513816 -106340912 
3264.220 -106403976 -106145408 -105510872 -105327664 -105257208 -105794624 
3267.113 -106417296 -106482696 -106432144 -106302136 -106314088 -106013592 
3270.006 -105493304 -105204464 -105474368 -106108520 -106378168 -106153264 
3272.899 -106029320 -105262784 -104452368 -105114200 -105507824 -105711840 
3275.792 -105937776 -105498664 -105288392 -105827544 -105767208 -106013304 
3278.685 -106160624 -105926376 -105803344 -105629160 -105799448 -106023320 
3281.578 -105801464 -105733632 -105680848 -105409864 -105767832 -106207208 
3284.471 -106062160 -105952616 -106257040 -106204800 -106062072 -105880344 
3287.365 -105909304 -105976960 -105568696 -105221384 -105395728 -105743704 
3290.258 -105471056 -105171168 -105247144 -105392456 -105657320 -105686072 
3293.151 -105806560 -105830040 -105658416 -105575440 -105652008 -105610632 
3296.044 -105620048 -105519400 -105499160 -105468760 -105825152 -106068352 
3298.937 -106025552 -105698416 -105526928 -105727312 -105889472 -105792592 
3301.830 -105573160 -105392264 -105401808 -105395584 -105551648 -105417560 
3304.723 -105233608 -105419928 -105600056 -105570648 -105529096 -105533120 
3307.616 -105580840 -105366688 -104525400 -104276416 -105319456 -105857376 
3310.509 -105872560 -105652200 -105654304 -105784056 -105569440 -105109992 
3313.402 -104833216 -104970928 -105531264 -105798608 -105798360 -105246016 
3316.295 -104993440 -105661016 -105821784 -106250456 -106110448 -105483504 
3319.188 -105663728 -106260000 -106338760 -105473800 -105321104 -105647120 
3322.081 -105776128 -105718656 -105390336 -105456552 -105842800 -106345296 
3324.974 -106298120 -105819120 -105853272 -106249000 -106637752 -106101656 
3327.867 -105506344 -105854544 -106831656 -106252768 -105163064 -105734152 
3330.760 -106662512 -106123744 -106141384 -105821624 -105761024 -105573328 
3333.654 -105248520 -104942552 -105117744 -105707656 -105833688 -105779728 
3336.547 -105318368 -105309976 -105674352 -105537352 -105748816 -105615960 
3339.440 -105423488 -105842512 -105740776 -105652280 -105503712 -105163248 
3342.333 -104888632 -105088832 -105396704 -105294768 -105398096 -105921936 
3345.226 -106206992 -106057368 -105743184 -105416488 -105329400 -105390072 
3348.119 -104879056 -105029584 -105478592 -104849840 -105349336 -106397720 
3351.012 -105732496 -105327816 -105908888 -105790680 -105689672 -105311728 
3353.905 -104987304 -105475728 -106075200 -106452128 -105973688 -105407704 
3356.798 -105107456 -105012552 -105576200 -106105152 -105650656 -105362520 
3359.691 -105851456 -106422888 -105876512 -105466416 -105267272 -104851056 
3362.584 -104317176 -104562896 -105510352 -105879304 -105371488 -105417608 
3365.477 -105140408 -104409088 -104262424 -104487704 -105098384 -105046760 
3368.370 -104918448 -105133512 -105174568 -105147880 -105735976 -105722000 
3371.263 -105841584 -105871808 -105453496 -105536000 -105998712 -105974960 
3374.156 -105503648 -105201584 -105176112 -105675024 -105685184 -105305192 
3377.050 -105416784 -105607352 -105686384 -105495488 -105343520 -105723040 
3379.943 -105829008 -105299112 -105042688 -105405776 -105802784 -105457776 
3382.836 -105178416 -105610688 -105656120 -105190480 -105198984 -105327840 
3385.729 -104871064 -104999064 -105310000 -105547336 -105840592 -105521328 
3388.622 -105239888 -105316616 -105281544 -104917328 -105165920 -104925480 
3391.515 -104858680 -104661472 -103872944 -103875896 -104884640 -105505344 
3394.408 -105335416 -105029872 -105143736 -105180336 -104928512 -104710480 
3397.301 -104688976 -105219384 -105366360 -105081760 -104924088 -104971928 
3400.194 -105305464 -105343928 -105084960 -104945400 -105226232 -105344816 
3403.087 -105070888 -104876008 -105110504 -105031112 -104906136 -104852720 
3405.980 -105557800 -105678088 -105323736 -104907856 -104688272 -105842184 
3408.873 -106477376 -105890456 -105705224 -105464232 -104542088 -104483520 
3411.766 -104352456 -104077928 -104439272 -104558872 -103838648 -104297504 
3414.659 -105625864 -105851904 -106535088 -105515056 -104860576 -105283768 
3417.552 -105574560 -105575000 -104297904 -103259648 -103685976 -103950576 
3420.446 -103233680 -103707568 -104203272 -103934984 -104251160 -104343200 
3423.339 -105190488 -105713512 -105388088 -104991264 -105665704 -105606128 
3426.232 -104655992 -103781376 -103825936 -103446616 -104181304 -105904936 
3429.125 -106541224 -105637296 -104264800 -103519704 -103794288 -104065640 
3432.018 -104945240 -105012728 -104762528 -105242296 -104820576 -104702648 
3434.911 -104330544 -104319128 -104405064 -104211184 -104030808 -103982840 
3437.804 -104409824 -105296616 -105262080 -104400128 -103468824 -103639352 
3440.697 -104642016 -104623808 -103684376 -102532392 -102322904 -103181136 
3443.590 -103931744 -104852440 -105227080 -104262984 -103772080 -103543432 
3446.483 -103968664 -101050664 -100944832 -103373904 -104628608 -105671432 
3449.376 -103914616 -102667136 -103275984 -104397512 -104798776 -104841728 
3452.269 -105066376 -105212352 -104966256 -104275096 -104397720 -104653504 
3455.162 -103832664 -103396408 -103442200 -104025008 -104015880 -103640560 
3458.055 -104331920 -105587944 -105531136 -104752392 -104323376 -104005976 
3460.948 -103441560 -103436504 -103549568 -103439784 -103158624 -103648136 
3463.842 -104300984 -104454456 -104210744 -104621376 -104283528 -103540816 
3466.735 -103568192 -103690376 -103652936 -103623888 -103359144 -102971552 
3469.628 -103505792 -103109648 -102845104 -103739464 -103870552 -103744168 
3472.521 -103392712 -103472088 -103314136 -104015632 -104402488 -103313704 
3475.414 -103387344 -103796936 -103160232 -103912208 -104237640 -103620632 
3478.307 -103660120 -104277792 -104587216 -103818744 -103384584 -102801480 
3481.200 -102989584 -102498368 -101549456 -102418408 -103527992 -104217064 
3484.093 -104097104 -103118352 -102814528 -103331288 -103168544 -102910136 
3486.986 -103468680 -103067456 -101258424 -101569400 -103358224 -102828728 
3489.879 -101752024 -102133008 -102911104 -103256592 -103098160 -102279048 
3492.772 -102353624 -103250104 -102942776 -102575872 -102625464 -102457936 
3495.665 -102002608 -101646832 -102199608 -104173368 -104384296 -103735776 
3498.558 -103282848 -102929504 -104360328 -105067096 -104574008 -103868448 
3501.451 -103258384 -103554992 -104489872 -102502520 -100425872 -102651448 
3504.344 -103225048 -102103176 -102861936 -103529424 -103548856 -103499704 
3507.238 -104323544 -104454904 -103632304 -102094160 -102880168 -104762968 
3510.131 -104677304 -103087408 -102253816 -101838064 -101580304 -101364816 
3513.024 -101539424 -102370872 -103186560 -102703880 -102184624 -103157760 
3515.917 -103046136 -102140520 -103012528 -104175536 -103752152 -102346776 
3518.810 -101237768 -102064088 -103588344 -103227136 -103131024 -103092872 
3521.703 -101894128 -99630840 -97544680 -99297024 -103467568 -105484616 
3524.596 -105372168 -104479816 -105619280 -104912440 -102490656 -100402992 
3527.489 -101096480 -102581536 -102752248 -100586736 -99942448 -101968384 
3530.382 -102252104 -102144528 -101548400 -102166328 -104532656 -105886664 
3533.275 -105358184 -103133840 -102516136 -103507096 -103387936 -100823816 
3536.168 -100970848 -103802208 -106299816 -105234368 -102862136 -102793392 
3539.061 -106206864 -106759520 -104098720 -102540984 -104895624 -105841896 
3541.954 -103713048 -102277056 -104246240 -104844576 -102042600 -100084472 
3544.847 -106022416 -111251008 -110253832 -105636120 -108903864 -112815112 
3547.740 -111668528 -105782944 -105109088 -109569408 -109810608 -104690432 
3550.634 -103355592 -108450392 -111492280 -102459856 -102148432 -109696600 
3553.527 -112364248 -109115688 -108016592 -112048176 -111791704 -109353352 
3556.420 -113540624 -116764104 -111264760 -107333536 -113208064 -117664056 
3559.313 -111508104 -106851344 -112275896 -119417808 -110955792 -108325672 
3562.206 -109274832 -109648560 -108283168 -104892384 -107591968 -114764640 
3565.099 -119514120 -112513600 -101399896 -103217136 -119108256 -113528600 
3567.992 -119944280 -120705800 -118945984 -116677896 -111277288 -111115144 
3570.885 -112266520 -109128896 -110161808 -111538248 -108706944 -105564464 
3573.778 -107598688 -105982136 -104207048 -103689488 -104246152 -106439776 
3576.671 -104505400 -97892344 -105036184 -108676576 -105356928 -101150528 
3579.564 -97732480 -107247544 -109329344 -103230920 -101606840 -106598520 
3582.457 -103886288 -95080208 -84861968 -97800168 -100599024 -90781176 
3585.350 -82534072 -106734864 -112377848 -96952848 -88015808 -101916584 
3588.243 -97824616 -89936104 -93679320 -100541176 -95708016 -80384224 
3591.136 -90580744 -102658672 -93549656 -65732732 -90582960 -103085688 
3594.030 -83328856 -57923612 -84073808 -90410696 -57916736 -54852684 
3596.923 -104721544 -100807800 -62239716 -95303432 -100041256 -84705288 
3599.816 -57954196 -90809104 -102047472 -67645320 -59063624 -93148184 
3602.709 -81365080 -46965284 -71363888 -82573368 -75059544 -80937568 
3605.602 -95958600 -95243880 -94163168 -90900528 -87916840 -89335016 
3608.495 -104218456 -116044000 -146412256 -132097008 -112487864 -103262200 
3611.388 -96198912 -104439672 -117626960 -107976664 -96504896 -94753440 
3614.281 -96759904 -84926968 -77584088 -90850280 -95516880 -83584768 
3617.174 -72722128 -84937960 -86896864 -76462448 -80072296 -103124160 
3620.067 -100578488 -91665200 -124473896 -125153528 -105996888 -97352888 
3622.960 -91009064 -96015544 -78589824 -69667120 -74946536 -81987408 
3625.853 -101434496 -119390352 -122712960 -106026184 -131798088 -230714880 
3628.746 -131739976 -107658672 -132935760 -125562936 -112828832 -106750224 
3631.639 -116736472 -127600400 -124063032 -131129560 -136857792 -146649424 
3634.532 -144141296 -123848032 -124971816 -128372520 -128452376 -122602944 
3637.426 -117524592 -123924536 -128042208 -131516200 -133634000 -137173904 
3640.319 -138730144 -133716640 -134074688 -130104792 -131122800 -126335520 
3643.212 -124582808 -122661688 -123328208 -120040256 -116560824 -114624072 
3646.105 -116965424 -114617856 -115356480 -132736656 -129765304 -114408120 
3648.998 -125035080 -130975840 -114133992 -112899416 -105249208 -110194544 
3651.891 -111773176 -109243232 -111768832 -109080520 -106285832 -106153592 
3654.784 -109786712 -107169600 -104321752 -112861840 -121009280 -115199880 
3657.677 -107414920 -103100456 -104362344 -109041616 -110745264 -105228992 
3660.570 -104581888 -107544008 -115931520 -116014136 -107141336 -104400056 
3663.463 -110247688 -117081904 -107977536 -101079616 -102688936 -112547352 
3666.356 -113239312 -104022616 -101929088 -105627136 -116053176 -113282360 
3669.249 -102446680 -93950200 -98529024 -113233448 -107827736 -102435912 
3672.142 -105457496 -110726440 -107215304 -101101560 -97202544 -97287848 
3675.035 -79900760 -72641384 -80512416 -114921288 -106293872 -102807976 
3677.928 -101419792 -98363520 -99569360 -107370232 -108763200 -101724176 
3680.822 -103030304 -112220552 -112413416 -107117952 -100067640 -105550304 
3683.715 -107880672 -103351008 -84672632 -93639296 -104777880 -103378936 
3686.608 -89447240 -88644952 -96446992 -90525616 -51679568 -75804560 
3689.501 -92388616 -85313704 -57796048 -41506676 -79488424 -75490576 
3692.394 -61932744 -95407992 -101471632 -84647200 -42544584 -70156504 
3695.287 -85475472 -68383856 -32199110 -69460008 -76525200 -44727276 
3698.180 -9541849 -68099312 -79339360 -57843172 -73757416 -88397000 
3701.073 -75837984 -13092643 -61692036 -72113144 -50782292 -29802442 
3703.966 -66983164 -63539380 19370690 8423055 -57175812 -48057100 -7591446 
3707.341 -87891176 -90496000 -46785548 -46989000 -140454864 -189093440 
3710.234 -119031736 -94057240 -78869760 -84659520 -137862480 -123517112 
3713.127 -110586048 -115394928 -121065248 -125204744 -122071728 -115816744 
3716.021 -106715504 -103158192 -95025320 -98742144 -91431856 -73895392 
3718.914 -88410704 -97628456 -91835752 -75738408 -85843664 -108905304 
3721.807 -121893280 -99059168 -205804656 -273099168 -166147280 -182212384 
3724.700 -219335232 -173781968 -201198816 -198936416 -188970352 -356767488 
3727.593 -234916896 -255502784 -312746816 -243879168 -340715424 -425774816 
3730.486 -304716000 -416587904 -418005728 -382053696 -480677312 -384440832 
3733.379 -399429088 -313887488 -313826368 -342883584 -268428512 -377896096 
3736.272 -382289568 -389455552 -395144928 -273586464 -270786784 -259240096 
3739.165 -279180704 -269283072 -267887200 -258514640 -243065856 -208475744 
3742.058 -193157664 -184513600 -171004064 -219683392 -268998976 -236273584 
3744.951 -340859072 -252032960 -187658992 -167649696 -167176544 -156964688 
3747.844 -141203584 -129656240 -127208144 -189925696 -198792432 -148382432 
3750.737 -129242480 -123587088 -119314728 -138873952 -152469088 -128387896 
3753.630 -118176608 -117958960 -117101488 -116766632 -115074400 -115475296 
3756.523 -122253952 -124941600 -116206288 -111595256 -108666136 -107435072 
3759.417 -105442632 -113213528 -116826352 -112065096 -111876600 -111294104 
3762.310 -109515080 -109199592 -109269768 -109311008 -108761536 -106667152 
3765.203 -108414832 -119731672 -121304408 -112646576 -110301744 -107820552 
3768.096 -105809752 -103820424 -101944568 -109343232 -118029360 -114500344 
3770.989 -108464360 -108191960 -108492960 -108188992 -107896528 -107981664 
3773.882 -108347888 -107999232 -107541648 -107171288 -106396952 -105695192 
3776.775 -105822880 -106448648 -104831960 -101525936 -100168984 -105935920 
3779.668 -109721344 -111098144 -107788272 -108568992 -107786072 -106939632 
3782.561 -106966424 -106536704 -106464496 -104637008 -100286800 -96724640 
3785.454 -100095752 -104209976 -106105544 -106047880 -106233544 -106597416 
3788.347 -106420608 -105400064 -103942424 -103283600 -103833568 -104061968 
3791.240 -104560992 -105809624 -106478304 -106524816 -105800312 -105136832 
3794.133 -104614960 -103469168 -101049288 -98394784 -102231768 -107675480 
3797.026 -105312872 -99879328 -100189864 -100010288 -97417568 -95589880 
3799.919 -93574288 -87391960 -82989224 -92953000 -104274024 -94647344 
3802.813 -95437680 -101128088 -100082496 -98402224 -97608416 -97295144 
3805.706 -94196136 -90578288 -94173552 -103580968 -104945064 -99857000 
3808.599 -100464336 -101069648 -101041240 -99534088 -98872896 -101358608 
3811.492 -103909400 -104305480 -103305336 -102648080 -100784504 -99700576 
3814.385 -97048624 -91628384 -87047488 -90473656 -98723552 -99970544 
3817.278 -98545296 -101686144 -100779880 -98762840 -96758784 -92201176 
3820.171 -84064352 -86223264 -79659072 -83327304 -107049992 -101197544 
3823.064 -97737152 -98050056 -99441752 -99005272 -99482904 -98886776 
3825.957 -98876200 -102077592 -103845704 -101565992 -99720224 -100523680 
3828.850 -100116048 -97694856 -97041184 -96305928 -95004816 -99420344 
3831.743 -110646648 -111346992 -103551088 -102826040 -101740680 -99176600 
3834.636 -102139416 -106172320 -101732744 -94595776 -91600480 -88739768 
3837.529 -92719320 -99407752 -102342072 -95950424 -95028776 -91937528 
3840.422 -91896768 -102869376 -111996088 -103150744 -98767832 -98241432 
3843.315 -104039896 -107034728 -106566128 -102727664 -104803608 -104617288 
3846.208 -104118544 -102338272 -100953656 -100141064 -99880752 -98372336 
3849.102 -96698176 -94195552 -94613384 -94747808 -92654104 -93545136 
3851.995 -102267600 -96581512 -83845880 -92195120 -118416488 -163605504 
3854.888 -120419384 -103769256 -101731240 -102001904 -103994296 -104716568 
3857.781 -105760480 -101518704 -101350304 -101833592 -102685992 -100662928 
3860.674 -98087424 -98976384 -109258208 -111174720 -100889072 -96434496 
3863.567 -94734224 -94634528 -93623936 -104859936 -116267928 -103999512 
3866.460 -101407968 -100982912 -100416792 -100180456 -100072112 -103267072 
3869.353 -100309864 -94986376 -112601312 -107263888 -101408792 -103300296 
3872.246 -103019184 -100186328 -98413544 -96510232 -91125208 -109709056 
3875.139 -107965632 -105475216 -105743472 -104919368 -105499744 -104142456 
3878.032 -102286016 -101892432 -101688376 -101917688 -113923888 -113901016 
3880.925 -106513056 -106587904 -104049232 -103104960 -103317704 -102631600 
3883.818 -103854464 -103135784 -102036056 -109789928 -129603472 -133655128 
3886.711 -112983648 -103984928 -102407920 -101691440 -100946968 -99952016 
3889.604 -99075584 -98713840 -100407360 -112446280 -116068688 -105208648 
3892.498 -100972680 -101629248 -103356344 -103585552 -103333232 -104577624 
3895.391 -106989208 -107218392 -106670168 -105980224 -105846552 -102787888 
3898.284 -97752112 -100924104 -121779624 -124924568 -105028480 -100011256 
3901.177 -104007992 -123217728 -123449008 -111818144 -101867248 -100616024 
3904.070 -115744144 -124224512 -107649144 -103145880 -106141000 -108573888 
3906.963 -105547296 -105361224 -104590640 -104469952 -104513352 -104209872 
3909.856 -103875328 -104646032 -104590088 -105038440 -103974128 -103664712 
3912.749 -103558840 -104285880 -103885104 -103480600 -102486920 -103142632 
3915.642 -104572360 -107542816 -108017856 -114733888 -118998096 -108960416 
3918.535 -104426968 -103386432 -103522464 -110469080 -112622416 -105785672 
3921.428 -104059192 -104633880 -105679632 -105002408 -103607160 -102412296 
3924.321 -102805648 -105092312 -108288816 -106380728 -103386808 -103205072 
3927.214 -103423224 -102964256 -102285864 -101835264 -101244792 -100764040 
3930.107 -102457408 -103336736 -104049960 -104445912 -109416280 -114163208 
3933.000 -112162176 -105838960 -104939696 -105155512 -104970416 -104590664 
3935.894 -104678472 -104526128 -104416976 -103996248 -103531152 -103466216 
3938.787 -103638944 -103074280 -102790264 -102207952 -102493072 -103097704 
3941.680 -103643664 -105709792 -110363808 -111261744 -106261624 -104656432 
3944.573 -104508568 -104463336 -104279392 -104158296 -103775600 -105425432 
3947.466 -108747056 -109384392 -107427616 -105281328 -104444456 -105343960 
3950.359 -104648600 -102702928 -102018464 -102534536 -103092632 -102117520 
3953.252 -101608424 -103373336 -104045256 -103707672 -103733000 -103811192 
3956.145 -103411312 -103493112 -104024856 -104561552 -104043560 -103485568 
3959.038 -103945976 -103855496 -103912456 -104182752 -103822904 -103841248 
3961.931 -104849392 -105426576 -104921480 -104826416 -104871304 -104801216 
3964.824 -104516736 -103996800 -103353136 -103250128 -103357848 -103443000 
3967.717 -104039800 -103936408 -103375624 -104180912 -104509688 -104040056 
3970.610 -104416408 -104086776 -103569608 -103520152 -103247224 -103814112 
3973.503 -103631728 -102401296 -102765104 -103700608 -104196240 -104639664 
3976.396 -104330448 -103738208 -103612240 -103609240 -103958904 -104395704 
3979.290 -103978560 -103530240 -103816200 -104105944 -104321960 -104197880 
3982.183 -102878568 -102588744 -103371680 -103964064 -104186824 -104060184 
3985.076 -103483984 -103510192 -103813336 -104064536 -103752088 -103216816 
3987.969 -103377520 -103462936 -103781104 -103863416 -103800104 -103422288 
3990.862 -103195960 -103430664 -103691992 -103550056 -103521056 -103791224 
3993.755 -103548936 -103453176 -103043816 -102505368 -102907552 -103077112 
3996.648 -103639416 -103484400 -103263416 -103799200 -103623280 -103495800 
3999.541 -104041640 -103865856 -103854616 
##END=
