##TITLE=23dimema,  108 mg of 2,3-Dimethylmaleic anhydride  (Thu Oct 11 13:43:5
##JCAMP-DX=5.01  $$ Nicolet v. 521
##DATATYPE=INFRARED SPECTRUM
##ORIGIN=ceam
##OWNER=Nicolet
##LONGDATE=2001/10/11
##TIME=14:43:55
##DATA PROCESSING=
Ratio against background
%Transmittance->Absorbance
Truncated
ElementMultiply or ElementDivide
##XUNITS=1/CM
##YUNITS=ABSORBANCE
##FIRSTX=400.163208
##LASTX=4000.185791
##FIRSTY=0.032635
##MAXX=4000.185791
##MINX=400.163208
##MAXY=0.298554
##MINY=-0.012684
##XFACTOR=1.000000
##YFACTOR=1.000000E-009
##NPOINTS=7468
##DELTAX=0.482124
##XYDATA=(X++(Y..Y))
400.163 32635152 24620026 6435400 11676416 19708520 18586518 20211768 
403.538 19367028 15396649 5035578 683871 4785754 13263734 18170028 15333658 
407.395 11463601 645974 8023218 35353208 22090022 11710488 19257874 20852026 
411.252 22859118 27669902 19848480 17020666 14474398 14045576 11695920 
414.627 11140596 11639828 10462280 9956941 13770373 23525504 46146300 
418.002 68831864 87329696 77021368 76627216 66940532 29926658 11648643 
421.376 8685326 9539498 21981508 48025064 37159044 10798300 6758220 12440094 
425.233 24804798 20156266 10133846 7962367 10739403 9788886 7563424 7305100 
429.090 7889987 8741139 9001909 11502590 17552684 12646224 6950089 7828177 
432.947 9210170 7705291 6784740 9707626 12517091 8455862 12456018 22493572 
436.804 15548172 7370779 6361590 5455691 7749577 5996632 4048751 6041517 
440.661 7951163 11760496 26661842 31695380 14903028 11862638 24953778 
444.036 18483716 6993624 5111407 5939996 10849969 17781726 19226184 10590600 
447.893 6214784 5171859 5416705 5607008 4630001 3371863 4204395 6704647 
451.750 8491473 11274659 21780652 17192164 5842963 3566750 3889652 4541867 
455.607 5762574 7273326 13775160 25725822 60454212 62347432 18923764 4653746 
459.464 2389238 4646981 4847803 8573857 14437917 8625836 2516427 2351958 
463.320 2285202 2908491 2297527 1962759 2012954 2371014 2545456 3330959 
467.177 4385165 10580482 11520486 8124587 4628863 1405907 1641852 2634986 
471.034 2671890 8452078 31631264 52082492 30931840 7195231 2250962 1518976 
474.891 805383 -12581 1471829 4966196 2288833 -72713 591291 -731702 -2663799 
479.230 -3052677 -413604 2798495 2136703 1426882 -339944 -4084013 -2104856 
483.087 3463133 13459934 20357724 7021068 -657732 757849 5547535 2808699 
486.944 -1810696 -2327142 -1600658 -1432626 -1406206 -467756 -629974 -771592 
490.801 -754426 2631919 9564731 8732113 1370672 -1949423 -1477076 -772452 
494.658 -1783012 -1651064 -1410499 -1172609 -1711861 -2321177 -1601450 
498.033 -849047 -2556858 -2189492 -1359734 -1677635 -1752553 395976 5012717 
501.890 20454198 27725914 7931861 -125782 -206929 291024 -758825 -1587882 
505.747 -1605609 2551788 14898776 12235356 1086208 -675399 -1312333 -1414627 
509.604 -1405644 941273 2526125 249680 -1356431 -1439198 -1205223 -505354 
513.461 -547384 -81724 539866 24894 -531466 160507 9279963 18508126 14095989 
517.800 12116430 4260003 1753020 11068057 14989655 4249765 843792 559307 
521.657 788320 457301 849535 759509 866068 542321 1018982 2004899 14672482 
525.996 26831340 11233413 1917428 1397463 1321149 1400455 1140123 1073818 
529.853 877124 555890 -3601 226374 191831 400950 427549 337710 389111 971292 
534.674 610867 655099 1509167 3724862 2301890 68735 -681817 -377819 -532922 
539.013 -910883 -1170990 -1344606 -1334597 -545100 -1069465 -1621158 
542.388 -1993655 -1553976 -1551929 -1670440 -1304504 417367 2082632 2301790 
546.245 3855853 1286553 -286107 2045744 750149 -1617626 -1988542 1869407 
550.102 4302735 375116 -1502039 -1413637 -1872164 -2233337 -2424948 -2135126 
553.958 -1532581 -232628 -649924 -2243687 -2776838 -2497068 -2074849 
557.333 -1724502 -1715228 -1933623 -2138423 -1819638 -2046621 -2432657 
560.708 -3002959 -2845213 -2208184 -1805516 -1638422 -983487 -1688098 
564.083 -2166909 -2260729 -2089655 -2316102 -2265508 -1150238 2971640 
567.458 2490566 -1289043 -1534430 2411561 3820486 -371297 -1963870 -1412415 
571.315 -593048 -1824159 -2761364 -2822993 -2502372 -2077190 -1888197 
574.689 -2183558 -1846067 4835741 11041410 2731070 -2153128 -2405540 
578.064 -2208349 -2325725 -2273650 -2089293 -102627 5164919 4021026 -1006297 
581.921 -2618220 -2645061 -2723895 -2744210 -2517658 -139528 1451018 
585.296 -1346258 -2641767 -2760541 -2695708 -2716223 -2509158 -2798073 
588.671 -2757182 -2672954 -2544735 -2448934 -2234622 590627 8767881 7920219 
592.528 -117037 -2519404 -2633172 -2633764 -1930918 -741724 -2031385 
595.903 -2577049 -2806467 -3378646 -3710316 -3374602 -2741181 -2518218 
599.277 -2250741 1321515 2794326 -1089725 -2571285 -3042411 -2962648 
602.652 -2860487 -3187981 -3102455 -2144061 -1789842 -2689221 -3121963 
606.027 -2707596 -2423695 -2315146 -2414008 -2736769 -3160582 -3451792 
609.402 -3521244 -3041687 -2613576 -2771274 -3220510 -2175514 -2081807 
612.777 -2832803 -3611847 -3447025 -2706674 -2882376 -2598491 1059536 
616.151 2024206 -976908 -2772986 -4576454 -5172402 -3936543 -2578894 
619.526 -2825298 -3045372 -3178048 -3951778 -4001289 -3403993 -2439181 
622.901 -2028746 -2317881 -2959818 -2528627 329785 2473005 -140588 -1502039 
626.758 -2094733 -2702590 -3075247 -3084656 -2942770 -2844752 -3275761 
630.133 -3294176 -2963339 -2681450 -2762187 -2876122 -2104889 -937763 
633.508 -1831813 -2858841 -3081728 -573493 1759108 -1379750 -2668080 
636.883 -2245731 -2623522 -2152435 -2083555 -2790369 -2518218 -1007024 
640.257 -1618583 -2875859 -2888695 -3021057 -2938130 -2788163 -2944811 
643.632 -2971237 -2219656 -2483429 -3293419 -3374733 -3166535 -3245472 
647.007 -3035765 -2825759 -3095348 -3320383 -3026354 -3032902 -3135023 
650.382 -3123048 -3122456 -2698079 -2625070 -3121206 -3134167 -3286908 
653.757 -3138740 -3056954 -3262442 -3449293 -3217714 -3431246 -3520915 
657.131 -2988118 -2783587 -3042905 -2503064 -1164546 -1166562 -2551324 
660.506 -2581924 -2694325 -2631196 -2391634 -2109638 -1846858 -1924683 
663.881 -2188569 -2405540 -2254433 -2136840 -2299952 -2508137 -3078076 
667.256 -4484445 -12683967 -5761453 5773553 3308388 1043991 -50682 -1049633 
671.113 -1784727 -2052359 -2079334 -2682438 -2791389 -2320419 -2531230 
674.488 -2770912 -2611468 -2712436 -3112620 -2971105 -2680330 -3230739 
677.862 -3346655 -2734925 -2445672 -2770615 -2825594 -3229752 -3867288 
681.237 -3562686 -3326926 -3323836 -3296905 -3436177 -3424047 -3086104 
684.612 -3150713 -3132358 -3132358 -3359741 -3432988 -3227746 -2027658 
687.987 -1753642 -1736449 -430784 -1960572 -2659683 -2518580 -3114166 
691.362 -3125022 -2729723 -2929474 -3187751 -2811866 -1984683 -2422476 
694.737 -3169068 -3084196 -2991606 -2606890 -2325461 -2466824 -1983760 
698.111 -1720541 -2586140 -2943363 -2956230 -2672690 -2877142 -2998550 
701.486 -2823915 -2875957 -3169792 -2849723 -2281066 -2506358 -2952643 
704.861 -2067199 -1279132 -2157381 -2706246 -2565784 -2265574 -2284263 
708.236 -2510839 -2565455 -2791949 -2707069 -2512815 -2498287 -2376641 
711.611 -2194272 -2284560 -2110627 -1526440 -1080769 -1390881 -1567347 
714.985 -1432131 -1175187 -986164 -841441 -767755 -684926 -752607 -511775 
718.842 -333985 -223587 264864 811988 290559 -195536 -576537 -884794 -764349 
723.181 -612372 -646814 -336932 73772 609374 1610290 3480869 7387629 
727.038 12860609 12009561 5844307 1911172 309127 -371826 -758726 -755418 
730.895 -602214 -579151 -659784 -690683 -484040 -289054 -375236 -355141 
734.752 -250245 -360008 -436676 -470073 -615482 -636360 -638014 -936375 
738.609 -1186984 -1272855 -1522412 -1478363 -1179879 -1679549 -2085171 
741.984 -2197207 -2295140 -2528265 -2548326 -2525630 -2215305 -2253312 
745.359 -2779373 -3188376 -3223075 -3240177 -3120088 -2910320 -2851928 
748.734 -3242907 -3374897 -3312689 -3088308 -3262442 -3382032 -3160582 
752.108 -2938130 -3007072 -3244815 -3461981 -3150977 -2984367 -3095250 
755.483 -3258824 -3481638 -3477989 -3449786 -3541620 -3258791 -3177226 
758.858 -3330478 -3427498 -3358623 -3294965 -3146964 -3324461 -3459812 
762.233 -3747241 -3555062 -3325381 -3401561 -3330971 -3305915 -3271979 
765.608 -3340934 -3562259 -3502805 -3524366 -3798811 -3906794 -3530052 
768.982 -3462672 -3064916 -2804887 -3127687 -3468293 -3550034 -3329787 
772.357 -3499256 -3487916 -3372497 -3233008 -3357374 -3294406 -3245176 
775.732 -3510135 -3551315 -3260469 -3049189 -3207913 -3360366 -3379566 
779.107 -3191402 -3194132 -3412081 -3481736 -3362897 -3385780 -3433613 
782.482 -3439563 -3319923 -3242545 -3256062 -3279246 -3290953 -3354414 
785.857 -3472533 -3466485 -3277043 -3287599 -3419905 -3432035 -3381210 
789.231 -3388048 -3434731 -3407478 -3361845 -3434796 -3382361 -3380552 
792.606 -3462376 -3397878 -3226891 -3324000 -3480455 -3451857 -3227581 
795.981 -3155450 -3365659 -3411028 -3385418 -3278786 -2912525 -2953927 
799.356 -3369802 -3502017 -3489461 -3398931 -3370755 -3420463 -3413626 
802.731 -3346786 -3270762 -3357998 -3389988 -3290394 -3353888 -3470495 
806.105 -3428781 -3405111 -3426841 -3388509 -3287961 -3427038 -3538170 
809.480 -3524070 -3499551 -3503068 -3540339 -3638200 -3558480 -3544973 
812.855 -3641091 -3636721 -3456985 -3315813 -3332582 -3456229 -3540635 
816.230 -3562686 -3452679 -3408136 -3405637 -3561701 -3586150 -3497086 
819.605 -3423126 -3410075 -3433613 -3410601 -3377824 -3379172 -3396695 
822.980 -3438084 -3425822 -3393440 -3402119 -3386700 -3309598 -3391895 
826.354 -3551546 -3622198 -3609974 -3653610 -3570442 -3502017 -3544086 
829.729 -3521803 -3549902 -3469147 -3481441 -3601792 -3592755 -3631891 
833.104 -3731473 -3642208 -3598243 -3512961 -3492321 -3331398 -3225476 
836.479 -3404946 -3411423 -3498598 -3599590 -3592000 -3603698 -3555982 
839.854 -3502279 -3494621 -3521014 -3636918 -3684724 -3555982 -3421811 
843.228 -3477069 -3474998 -3519699 -3536526 -3489330 -3492386 -3544545 
846.603 -3502707 -3485648 -3518187 -3483906 -3499157 -3548917 -3528113 
849.978 -3540437 -3524366 -3528901 -3526996 -3475820 -3346918 -3418294 
853.353 -3441634 -3363653 -3331135 -3469673 -3541259 -3504021 -3414448 
856.728 -3486766 -3584080 -3603895 -3633830 -3571395 -3499256 -3453303 
860.103 -3373418 -3409155 -3566367 -3480520 -3325940 -3293123 -3280529 
863.477 -3358524 -3314728 -3294965 -3251589 -3240736 -3236165 -3119397 
866.852 -2939348 -2779143 -2623654 -2505436 -2206239 -2079961 -1955723 
870.227 -1657963 -1239850 -977900 -836018 -760479 -565485 -311239 -84175 
874.084 -47104 15881 174793 256211 149337 -21261 -93683 2958 132764 238971 
878.905 252896 395810 572379 701692 833699 890205 590063 -48330 -175167 
883.244 -47402 16245 113508 218417 465062 510706 298616 179997 78080 -296140 
888.065 -738185 -1063317 -1357356 -1630962 -1832374 -2127971 -2424058 
891.440 -2554387 -2718462 -2861902 -2928092 -3066462 -3120186 -3033494 
894.815 -2989303 -3084854 -3156667 -3198342 -3215478 -3135812 -3096072 
898.190 -3198507 -3239618 -3148345 -3141963 -3120910 -3063008 -3049650 
901.565 -3033363 -2919601 -2820557 -2866445 -2910155 -2933193 -2901466 
904.939 -2839848 -2769694 -2661230 -2609426 -2607252 -2588939 -2564499 
908.314 -2475950 -2409659 -2374103 -2338677 -2366227 -2355320 -2322924 
911.689 -2315607 -2251664 -2216228 -2290130 -2275199 -2130806 -2066308 
915.064 -1990158 -1845143 -1714700 -1632711 -1445638 -1280091 -1213021 
918.439 -1156880 -1043121 -833141 -475104 -267730 19989 418263 929286 
922.296 1369243 1744071 2192747 2768116 3502446 4287643 5051232 5915307 
926.153 6856096 7896228 8973359 10225973 11455946 12790273 14063475 15468163 
930.009 16856914 18223826 19488822 20759634 22085142 23277262 24236532 
933.384 25031166 25761682 26394444 26883508 27353254 27745764 28261174 
936.759 28669480 29064458 29412634 29797642 30154328 30490976 30650314 
940.134 30587488 30382474 30162638 29830648 29648620 29261158 28378062 
943.509 27592536 27060356 26617522 26020212 24989786 23856350 22535520 
946.884 20931050 19171154 17474616 15777087 13899707 11981187 10162405 
950.258 8538374 7076903 5804379 4637604 3601963 2782188 2088059 1499624 
954.115 1075147 625832 216528 -146749 -532392 -839755 -1090320 -1259376 
957.972 -1543576 -1869294 -2094338 -2250576 -2507313 -2723730 -2775126 
961.347 -2903375 -3166174 -3281745 -3340441 -3452942 -3599032 -3580432 
964.722 -3558940 -3643194 -3685085 -3704633 -3785311 -3703450 -3680190 
968.097 -3710546 -3799107 -3890210 -3903444 -3858388 -3827517 -3827156 
971.471 -3891130 -3850244 -3798778 -3798253 -3834742 -3835662 -3778348 
974.846 -3811851 -3850540 -3814839 -3763238 -3784391 -3926529 -3910274 
978.221 -3916678 -3955160 -3942913 -3823806 -3858914 -3993180 -3922884 
981.596 -3779268 -3747635 -3821901 -4091825 -4178437 -4056867 -3803179 
984.971 -3747963 -3855367 -3850802 -3767607 -3864103 -4052468 -4026633 
988.346 -3852543 -3857009 -3923441 -3946787 -3879899 -3834315 -3815529 
991.720 -3855269 -3829849 -3851262 -3895300 -3896253 -3818584 -3845975 
995.095 -3894348 -3867288 -3817040 -3788399 -3849324 -3872904 -3790797 
998.470 -3801931 -3850999 -3869128 -3900686 -3888864 -3827189 -3839833 
1001.845 -3827254 -3776377 -3640828 -3686202 -3777264 -3834020 -3914839 
1005.220 -3873988 -3831195 -3853003 -3787052 -3845975 -3919830 -3929779 
1008.594 -3924886 -4002242 -3999024 -4014684 -3953453 -3925313 -3886762 
1011.969 -3886138 -3913755 -3977782 -3935361 -3871624 -3823609 -3845318 
1015.344 -3955259 -3966586 -3835827 -3893133 -3978077 -3977126 -3921472 
1018.719 -3885449 -3827156 -3803245 -3816022 -3941370 -3940549 -3885219 
1022.094 -3960447 -3987434 -3792603 -3882296 -4003751 -3972956 -3780450 
1025.469 -3779268 -3894020 -3986089 -3989339 -3903411 -3817500 -3823182 
1028.844 -3766884 -3875531 -3927349 -3857765 -3765472 -3811029 -3844300 
1032.219 -3909552 -3978439 -4059198 -4059460 -3972660 -4017474 -4149131 
1035.594 -4237274 -3862001 -3747405 -3950662 -4077711 -4203771 -4172071 
1038.970 -3969771 -3783833 -3873265 -3884365 -3906892 -4074231 -4186478 
1042.345 -4003390 -3985826 -4006411 -4017441 -4037335 -4144897 -4428888 
1045.720 -4589044 -4527205 -4165507 -3853922 -3978406 -4052009 -3981787 
1049.095 -3945048 -4057228 -4025189 -3933883 -4017638 -4099342 -4149361 
1052.471 -4135511 -4013140 -3945835 -4027815 -4044360 -4041767 -4064384 
1055.846 -4035956 -4041078 -4001651 -3951516 -4011335 -4063695 -4143978 
1059.221 -4292133 -4352693 -4345902 -4306535 -4302500 -4312965 -4352791 
1062.596 -4323825 -4283635 -4200686 -4197208 -4260307 -4328220 -4240522 
1065.972 -3994263 -4045049 -4190875 -4166065 -4120282 -4116902 -4181850 
1069.347 -4222410 -4272775 -4245477 -4207709 -4177551 -4188217 -4150279 
1072.722 -4193861 -4176731 -4111913 -4032739 -4090545 -4189037 -4168822 
1076.097 -4163341 -4234780 -4257026 -4238422 -4112536 -4160060 -4224510 
1079.473 -4272546 -4276909 -4175648 -4091759 -4075052 -4071639 -4138530 
1082.848 -4192745 -4159403 -4085293 -4062677 -4044885 -4079090 -4100228 
1086.223 -4134132 -4053027 -3929877 -3950235 -4128586 -4164851 -4029456 
1089.598 -3931651 -3949939 -3901277 -3845581 -3904364 -3962154 -3991998 
1092.974 -3970132 -3880720 -3814478 -3853266 -3881804 -3792964 -3800355 
1096.349 -3776115 -3760380 -3808664 -3796676 -3824364 -3723095 -3533831 
1099.724 -3453961 -3448669 -3486831 -3491038 -3473617 -3425658 -3243894 
1103.099 -3096829 -3324230 -3346195 -3016187 -2771965 -2809463 -2959357 
1106.475 -2559328 -2059449 -2200009 -2197569 -2034979 -1707901 -1427177 
1109.850 -1266248 -1035452 -678872 -268657 118480 345105 651283 1075280 
1113.707 1495236 1798267 2162177 2647354 3149493 3458458 3895903 4282991 
1117.565 4542939 4681980 4839996 5003030 5044461 4987210 4898735 4851622 
1121.422 4722810 4491981 4522448 4618682 4760327 4905236 5191375 5329651 
1125.280 5222695 5040605 4823076 4531856 4229221 3858995 3461530 2979780 
1129.137 2513561 2062789 1609459 1153079 769168 372529 70392 -283094 -613001 
1133.477 -914520 -1242659 -1528256 -1675985 -1524393 -1646311 -2217975 
1136.852 -2458357 -2557846 -2724323 -2942342 -2967748 -3057053 -3145154 
1140.227 -3329886 -3429109 -3403204 -3364015 -3463954 -3572644 -3626174 
1143.602 -3596863 -3674440 -3713700 -3685315 -3695040 -3752726 -3672436 
1146.978 -3703812 -3774537 -3822065 -3836844 -3755617 -3660575 -3798548 
1150.353 -3800158 -3824069 -3863676 -3891918 -3810471 -3774735 -3812573 
1153.728 -3864792 -3845088 -3816941 -3835465 -3894118 -3874054 -3881902 
1157.103 -3856714 -3890375 -3947575 -3950695 -3845449 -3827714 -3891918 
1160.479 -3941632 -3902262 -3868963 -3826565 -3822525 -3863742 -3846730 
1163.854 -3777363 -3776541 -3700231 -3637740 -3686728 -3762844 -3730487 
1167.229 -3746354 -3791322 -3829521 -3826992 -3777757 -3690868 -3767443 
1170.604 -3776081 -3685315 -3666292 -3719055 -3768494 -3772534 -3617466 
1173.979 -3106665 -2583077 -3201697 -3753975 -3681471 -3601891 -3571362 
1177.355 -3500242 -3595384 -3649141 -3704994 -3799698 -3941403 -3940385 
1180.730 -3851558 -3811226 -3869949 -3805216 -3817073 -3860359 -3808763 
1184.105 -3717248 -3782651 -3782092 -3716295 -3691689 -3377692 -3014706 
1187.480 -3560879 -3894053 -3889783 -3855926 -3940681 -3964944 -4000041 
1190.856 -3990422 -3998564 -3930534 -3934606 -3968228 -3995576 -3981590 
1194.231 -4001420 -3922063 -3840654 -3863282 -3884168 -3834578 -3833757 
1197.606 -3628802 -3347411 -3519732 -3747865 -3796512 -3832739 -3786395 
1200.981 -3751905 -3746157 -3779826 -3746354 -3720763 -3669315 -3677003 
1204.357 -3623709 -3598966 -3585986 -3618551 -3604520 -3685381 -3701906 
1207.732 -3705750 -3732622 -3761760 -3711565 -3796972 -3802063 -3726282 
1211.107 -3597488 -3366777 -2719285 -3040865 -3703089 -3837403 -3847255 
1214.482 -3810011 -3782914 -3810471 -3823970 -3836943 -3861410 -3833856 
1217.858 -3699245 -3452120 -3588845 -3889948 -3921143 -3902886 -3874185 
1221.233 -3954996 -3959068 -3950530 -3928039 -3935657 -3980343 -3957787 
1224.608 -3400015 -2972882 -3524103 -4000370 -4160781 -4192384 -4168723 
1227.983 -4224116 -4248168 -4210104 -4148737 -4170528 -4230941 -4247905 
1231.359 -4225494 -4257650 -4271431 -4268346 -4261325 -4265426 -4274547 
1234.734 -4246100 -4155662 -4187232 -4162750 -4096945 -4107416 -4180669 
1238.109 -4160060 -4122022 -4004966 -4118740 -4187364 -4193697 -4193598 
1241.484 -4173285 -4108729 -4026535 -3995183 -3836483 -2926052 -2947806 
1244.860 -3790698 -4096486 -4026633 -3886368 -3841311 -3797432 -3806037 
1248.235 -3750164 -3677463 -3632187 -3589174 -3551480 -3442587 -3337613 
1251.610 -3271979 -3175844 -3019477 -2979464 -2934543 -2780657 -2592892 
1254.985 -2383759 -2137664 -1990158 -1841547 -1555627 -1202910 -905658 
1258.361 -401720 -72779 211821 2358454 5081604 3438452 1823288 1983129 
1262.218 2528292 3143653 3697459 4469451 5102758 5517970 6165680 6973387 
1266.075 7870584 8262922 8298585 8539253 9739206 10532919 10251382 11459485 
1269.933 12916483 11948320 11640610 14800715 17046200 15193499 14770616 
1273.308 15590861 16533490 17275010 17923310 18376098 18954082 19188744 
1276.683 19140230 18782994 18537794 18096686 17394632 16515696 15973290 
1280.059 15315262 14061421 13286691 13071139 13120654 13325160 13364556 
1283.434 13618100 14007213 14003312 13478527 13010772 12540963 12017703 
1286.809 12209489 13261889 12207411 10759748 8828879 7098356 5973957 5861704 
1290.667 5150232 3244590 2170035 1506507 767209 113442 -375336 -916933 
1294.524 -1351047 -1630533 -1855734 -1580916 -765473 -1220852 -2409033 
1297.899 -2955013 -3069029 -3156207 -3381111 -3447321 -3430490 -3511417 
1301.274 -3747963 -3924591 -3897698 -3932438 -4275696 -4415245 -4432792 
1304.650 -4596879 -4639629 -4835293 -4684243 -3917695 -3675820 -2776081 
1308.025 -929068 -1675292 -3358919 -3559170 -3648254 -3625878 -3793884 
1311.400 -3728615 -1550906 3197490 2317879 1293133 299047 -849114 369213 
1315.258 -2180096 -3118212 -2170799 2970372 3078143 -1431503 -771791 7576708 
1319.115 8715751 1982563 1203546 -233058 -1497449 -3230640 -3588253 -3556212 
1322.972 -2533140 -2477433 -3020103 -3389791 -3215774 -3354184 -3196467 
1326.348 -3389199 -3719219 -4097307 -3351587 -3321896 -3280200 -3123871 
1329.723 -2185668 -2612489 -3261817 -3552006 -3557132 -4098685 -4013731 
1333.098 -3784030 -3404946 -3597652 -3332878 -3449425 -3134167 -142807 
1336.473 10370613 8087654 -1167124 3892827 16700940 19012752 14557000 
1339.849 17938848 27239218 12404736 -1453333 -3765143 -4107974 -4120742 
1343.224 -4106694 -3658111 -3673060 -3772895 -3800355 -3741229 -3965995 
1346.599 -4170955 -4105184 -4017244 -4032411 -3084031 8624 1014465 -2317486 
1350.457 -3639087 -3861016 -3827156 -3751741 -3679796 -3993114 -3993574 
1353.832 -3586808 36458 4958956 1057974 -3401561 -3760676 -3777264 -3410601 
1357.689 -1649480 -796861 -2731106 -3207617 -3367138 -2274672 7709406 
1361.064 20757930 7889244 4562694 21593126 45841264 28184552 3032930 
1364.440 -2523423 -3290065 -3411061 -3539156 -3373911 -3448307 -3151371 
1367.815 -971552 9985386 12669421 1139724 -2215964 -3030105 -3103277 
1371.190 -3262804 -2154809 -572632 -67909 8932363 35238020 26595716 16436264 
1375.048 26280694 11245620 -813232 -2591080 -2775126 127130 5692841 2229280 
1378.905 -1229112 1283263 804420 -2065022 -2885568 -2809134 -2243720 
1382.280 -2239501 -2626124 -2429165 -2573327 -2496179 -2355155 -1908453 
1385.656 -29975 8753040 16172441 29216040 43089072 15366990 1845881 -927481 
1389.513 -1139960 -996545 598657 1181119 21216 -880826 -396423 218550 
1393.370 3466273 19145010 54335160 38189448 24740988 33415366 15149510 
1396.746 2549721 9013005 20512378 14278835 26704648 57431876 27743750 
1400.121 4934491 349084 -685257 -1220092 -1274408 -1315901 -856753 -166291 
1403.978 2002835 18372676 42967684 20476670 1733958 -1376117 -1952359 
1407.354 -2387812 -2613279 -2501219 -2692119 -1811587 1514254 489045 
1410.729 -2102746 1435825 4979535 1960596 -2376344 -3311932 -3382854 
1414.104 -3111238 -2707596 -2104065 2397801 10068427 6993691 18641612 
1417.479 31988606 14749020 24794798 81025240 118187096 41837192 11234840 
1420.854 1636464 -537522 -1497978 -1604091 351538 15170750 43026032 32047030 
1424.712 5567538 -1639577 -2393677 -2384319 -2549874 -2468538 -1301035 
1428.087 2048840 1910772 3990963 26747182 43763660 14310475 829151 426853 
1431.945 2687993 1545776 6905480 8927460 2218356 100782 2106304 10919753 
1435.802 27744350 67434136 127999872 49375340 14553368 3589201 942767 
1439.177 -287432 -590931 -1021172 -967353 -913693 -953600 -1530270 -1304438 
1443.035 -1345531 -1286103 -1359933 -679964 301203 259128 432823 2359954 
1446.892 4141267 21111128 53935736 30835534 5532433 633165 -633415 -489170 
1450.750 -711325 1793908 13717055 19106436 4614128 825765 808038 6946486 
1454.607 18288586 38436556 40273864 50615176 118398104 124473608 66082024 
1457.982 71491856 69151040 54851628 40399812 11220560 2043247 143503 -206565 
1461.840 -901591 -422872 -236734 1222054 5835743 26563132 73877920 54504656 
1465.697 15066111 3065830 575830 21414 -260312 -1002164 -1478859 -1103805 
1469.554 -392451 846879 3467442 17381872 56538840 101490520 60739508 
1472.930 50139604 77873568 46879504 16485615 5608317 9331890 42840992 
1476.305 78805824 29132518 3914827 -689823 -1463140 -2190613 -2225458 
1479.680 -2274111 -1154633 5775165 20892946 13499547 870816 -2004308 
1483.055 -2436150 -2591673 -2179635 -2000185 -1392962 924670 9171386 
1486.431 14778912 36084600 60111068 24686096 11073155 30341466 60224140 
1489.806 70657648 62130764 66649168 33538836 7502402 1288447 187058 227899 
1493.663 209268 937886 2950589 9968231 33103514 84019632 64244904 23525014 
1497.521 10346146 18212148 54739384 66662684 22715076 7407076 5171759 
1500.896 4668315 10981053 17673624 7704785 2622485 3192516 5997607 12442787 
1504.753 33039082 81489320 136964144 122852000 166581936 177505344 101199464 
1508.129 82852160 71486824 43823180 53826580 42433872 19791706 8949242 
1511.504 12453869 43322692 49454900 14823240 3255005 2765381 14328044 
1514.879 37548312 28612814 26331634 62724924 93647912 108350696 70010584 
1518.254 22119970 8341615 12428466 37902424 81987584 92291560 118234600 
1521.630 83813024 67271400 86142112 50679592 21320512 13912844 26282206 
1525.005 60348584 80045384 35837536 15042030 32053094 45341352 27928546 
1528.380 39109748 30115866 6494254 1253554 559573 4026243 19576610 29428412 
1532.238 16908518 36015368 88284240 110945576 59657224 20858144 13696196 
1535.613 13518244 6326591 5943320 7438995 16898942 47451888 104289688 
1538.988 162966944 140921824 139278784 115073000 59699308 59536284 108621312 
1542.363 90262248 50090744 52021572 38849940 30324202 58948368 83099888 
1545.739 37531984 10097558 2659422 1061263 864242 1246277 2800596 16378835 
1549.596 50586776 67457160 32304190 6899118 2476670 2913028 3649341 6629413 
1553.453 19919030 58341572 92676896 41564376 16601166 12950585 16600234 
1556.829 35944956 94100216 173366528 189017824 150913312 133657904 193181424 
1560.204 182858096 69971264 28658788 10717871 5173502 2641620 2058428 
1563.579 2210830 8687963 35755500 45447808 14038286 2928172 229490 -67976 
1567.437 46698 3258811 18464526 55106484 87702416 89934888 35071028 9501260 
1571.294 2077671 450700 -86229 997096 1265617 1719820 3532877 9321431 
1575.151 26512660 67495016 137304656 80419096 37605140 19240140 7878818 
1578.527 1727936 -283491 -1280850 -1913236 -2331163 -2655895 -2889222 
1581.902 -2802879 -2313102 -2435854 -2661164 -2991047 -3233238 -3438445 
1585.277 -3536987 -3544184 -3527192 -3554766 -3496823 -3537447 -3524925 
1588.652 -3418064 -1966839 967341 438693 -2100834 -1919108 297423 -609328 
1592.510 -2806928 -3140319 -2672460 3088721 11490410 5258210 -1377075 
1595.885 1505044 3026991 -1142736 -3193014 -3293978 -3393604 -3319890 
1599.260 -3214294 -3048531 -2780394 37419 3687902 786296 -1364689 3058088 
1603.118 9081717 5180175 -1466344 -2877603 -3062810 -2916310 -2173766 
1606.493 2628486 10849289 8393296 -205902 -1282436 7011841 20611562 10811751 
1610.350 -208949 -2362635 -2477137 -2377399 -1870250 -1902482 -1393061 
1613.726 -1166562 80367 1938828 6863198 21297996 57926072 126245800 79658872 
1617.583 31501990 10200905 3534046 1180056 312476 -148140 1476584 1909241 
1621.440 1339130 5611237 20864158 40288192 74704264 57854784 16572593 
1624.816 3660234 856872 394318 -362656 1943089 18137138 54083948 34527596 
1628.673 6789419 323485 -1403266 -2065418 -2227041 -2059284 -1682487 
1632.048 -1120759 -623952 508848 3053484 10970994 39613676 115844192 
1635.424 191237328 93910296 39040612 28790122 55385120 42522044 12674505 
1638.799 2539290 252896 2347727 6991671 3185373 -722969 101113 4892603 
1642.656 4291826 673815 356844 2319079 6648355 22057460 61828584 106447624 
1646.514 59998904 58015624 79737136 76534736 58858132 20952158 7538980 
1649.889 5887094 6875654 11436794 26683544 62830784 156474032 290591200 
1653.264 217476480 123697024 118437976 80396488 30142500 10671922 6459848 
1656.639 4996528 4320906 1237139 -335276 -1199342 -1127204 -1508214 -969932 
1660.497 -133963 5551730 10571688 15910869 47589624 72875096 27327564 
1663.872 5952121 589599 -493340 -1100004 -1180606 -1213649 -447135 1143943 
1667.729 12112103 36076608 56826936 99265560 70963112 24279732 14786661 
1671.105 38926656 58483184 23405230 7706303 3049480 3226497 7614203 26654724 
1674.962 81866504 123453304 42562748 11789535 3263418 2084929 1513024 763890 
1678.820 1869307 12055821 32171860 44298116 28981564 9738732 7181655 
1682.195 14840382 39647616 95279952 124913168 151204832 179609120 115871960 
1685.570 51811076 21606150 10652906 7078014 10784509 27690138 35246032 
1688.945 15074344 12051632 30977810 28979898 7360231 2548455 1935034 3260914 
1692.803 2591618 4367291 5916986 11728291 27638862 76950752 184528352 
1696.178 107215712 49376636 38847040 38680468 21599184 20842466 44376280 
1699.553 101485536 246949488 298553856 124649248 46687500 16056661 11135837 
1702.928 9538922 8631075 24128740 59139148 37185760 14810521 31984076 
1706.304 69317240 43512736 18572580 5372890 159015 -814952 -49290 9581295 
1710.161 23692382 11973796 189809 -1033535 -184739 2955994 6076326 17958704 
1714.019 40001116 40467600 59678172 50855636 22337410 23285268 53982448 
1717.394 109808568 83550072 92072904 79760584 25322244 5314490 1015030 
1720.769 -444951 792602 400950 -1137680 1045353 14515989 17452954 3027591 
1724.626 -2093348 -2795472 -2907522 -2448308 -1786080 -1847353 -2082137 
1728.002 -2095887 -1847353 1529416 20958242 55953192 35401840 7286433 
1731.377 3219687 10463774 16954338 34802064 83203448 93276424 109700976 
1734.752 101919640 40126988 12868186 4307955 1593928 5405935 9071769 5156771 
1738.610 5193286 23202494 67996768 67879456 21739860 4831921 743842 641096 
1742.467 9939448 36538028 44530408 22857966 12227960 8247692 7381630 
1745.842 13493599 12617229 25601352 34647692 25804544 36783328 58388196 
1749.218 43586068 21539154 11174491 35681532 89886912 56818476 15909119 
1752.593 7820856 4735974 1357975 135582 82123 50177 1362994 7362724 33939884 
1756.932 48921444 17040066 4702880 7634671 6664673 2342864 1918027 3430203 
1760.790 9604499 31498000 70685176 42480532 12462325 4637671 3427865 3771619 
1764.647 3415074 3943013 4197102 4748368 5865129 9248381 22987484 60026220 
1768.505 46078064 18135756 13770783 17242254 27675516 58569288 84386632 
1771.880 67738456 91276536 113803968 66231660 44125552 40288116 43394712 
1775.255 61188648 73773144 56728832 49023512 49722252 51273188 53451268 
1778.630 58177924 62395392 60558496 70491440 98701336 87969432 69611688 
1782.006 69742240 69366840 68920776 68558344 68969704 76675280 93725704 
1785.381 80334808 69101464 68937280 70411864 71140160 72302272 72978368 
1788.756 72389248 70683576 71319904 75751728 97958736 100763200 80624008 
1792.131 96674872 140372656 102867576 68202744 57236024 54940508 56566464 
1795.507 64367048 72346384 61607292 51244816 47153324 45519740 46585352 
1798.882 53999180 81263456 82298640 53659860 50269004 58032820 53943240 
1802.257 59889816 56255912 39509948 35743444 34466976 35376280 35188720 
1805.632 33009694 30008522 29294478 30689000 37746260 33868560 27022624 
1809.008 24948234 24702334 31472280 52954240 44972232 23852676 23794604 
1812.383 25678434 18504184 15048856 14555115 14320852 13898408 13518825 
1815.758 12767752 11958470 12069414 17151936 16343843 9012700 6546825 
1819.133 5533340 4740329 3947192 3432006 3269527 3131972 3545437 6971031 
1822.991 7232458 3514738 3910280 11759882 44190660 55084028 18333686 5397414 
1826.848 3850103 3834692 4431389 8417281 26296288 45014496 55495652 63445032 
1830.706 26223250 9140321 5554784 5212836 5406506 8500225 7226360 4989120 
1834.563 4637302 4792354 4343563 4743679 7257827 17103306 15926646 6314084 
1838.420 3625952 3654854 3599591 3695421 3887010 4206871 5029108 10231062 
1842.278 12840268 9403395 15889941 42509728 89151768 48581512 18678482 
1845.653 11033967 5625938 2774852 5958135 19427210 17190992 4550941 1181352 
1849.510 -566113 -1098550 -1515148 -1564574 -1819572 -1577086 -1508280 
1852.886 -2035507 -2619142 -2658826 -2810319 -2885667 -3039878 -2930363 
1856.261 -2785365 -2978641 -3141569 -2640812 -190270 748489 -1845110 
1859.636 -2452130 -2797612 -2616573 -1189164 -330277 -2252225 -3331990 
1863.011 -3302462 -3112422 -2723401 -2784081 -2971961 -2120519 4858223 
1866.387 13662378 7331990 12754342 32419280 22635690 24345436 50451956 
1869.762 27110046 5819557 4277738 1439016 -1934183 -2456644 -2522994 
1873.137 -2515220 -2500000 -2372983 -2361614 -2319957 -2286373 -2125399 
1876.512 -1902383 -1910729 -1984320 -1897368 -1735986 -853611 -191032 
1879.888 -918421 -1443326 -1441411 -1447586 -1412349 -1250092 -1144388 
1883.263 -1094782 -567702 2199174 3724328 1377420 -26695 -600394 -605556 
1887.120 -673811 -467094 -192655 1720551 15612054 38243288 19964546 2241270 
1890.978 -583784 -1197161 -1288944 -1304900 -1385993 -1389461 -1014627 
1894.353 387552 9876430 14933547 3595415 -1717637 -2243061 -2084907 -2334426 
1898.210 -2686554 -2993153 -3071036 -3296708 -3378251 -3519633 -3372596 
1901.586 -2998122 -3100908 -3816416 -3931552 -3938809 -2594176 -2021260 
1904.961 -3364738 -4281208 -4175910 -4214075 -3857108 -1034725 4887442 
1908.336 1960296 -2844160 -24740 10599020 8743878 -1601813 -3868208 -4234059 
1912.194 -4113652 -4351151 -4233763 -4353644 -4028471 -4016194 -3865646 
1915.569 -4092744 -3830112 -3515163 -1365382 12175889 36140052 17497936 
1918.944 -253292 -3273590 -3616776 -3868569 -3734265 -3366744 1525858 
1922.319 10088367 17407046 17959118 3175327 -3354349 -3956243 -3993935 
1925.695 -4238061 -4235338 -4335700 -4278878 -4288753 -4175025 -4242262 
1929.070 -4178175 -4236158 -4153594 -4175714 -4156416 -4217127 -4098225 
1932.445 -3805347 -2689518 -2704204 -3803442 -4154054 -4140729 -4106169 
1935.820 -4086278 -4057228 -4020002 -4055193 -4101147 -4046002 -4045738 
1939.196 -4020067 -3965535 -3791749 -3555588 -2510246 437002 14391984 
1942.571 34153540 15397817 -1191279 -3392618 -3206565 -590104 969964 343579 
1946.428 741320 -2007111 -3841672 -4063334 -4099506 -3939039 -3877469 
1949.803 -4032476 -4133607 -4146374 -4156416 -4165343 -4172235 -4153824 
1953.179 -4229071 -4280453 -4038517 -2085731 -884066 -2992956 -3987172 
1956.554 -4045541 -4167772 -4116180 -4215552 -4434267 -4550847 -4498841 
1959.929 -4486215 -4233960 -3136305 -2810187 -4113160 -4521992 -4612321 
1963.304 -4507990 -4594421 -4434825 -4492938 -4162882 -2109737 1626753 
1966.680 1370506 8099842 9578179 -958361 -4266246 -4583175 -4435842 -4605961 
1970.537 -4451551 -4588290 -4455651 -4528156 -4375228 -4497955 -4440630 
1973.912 -4536354 -4461291 -4551929 -4399763 -4288950 -4116475 -4309685 
1977.288 -4297579 -4414785 -4347772 -4411669 -4397073 -4498841 -4388151 
1980.663 -4463391 -4384445 -4411735 -4327039 -4420230 -4338750 -4370570 
1984.038 -4317001 -4405765 -4322676 -4381133 -4304698 -4354923 -4180538 
1987.413 -3957984 -887075 3058923 -316106 -3897435 -4126846 -4216011 
1990.789 -3880260 706504 13795922 12738441 2945118 -1602110 -3575832 
1994.164 -4170167 -4345180 -4312277 -4370472 -4417475 -4458111 -4404093 
1997.539 -4422526 -4353972 -3711039 -3100481 -3867617 -4449748 -4543470 
2000.914 -4612124 -4614419 -4509432 -4483559 -4535469 -4561798 -4531075 
2004.290 -4521369 -4533763 -4540846 -4511138 -4456569 -4505596 -4142173 
2007.665 -3576423 -4005229 -4373522 -4087558 -4145029 -4489265 -4619271 
2011.040 -4624058 -4626909 -4617239 -4580389 -4591044 -4689848 -4689619 
2014.415 -4635761 -4606125 -4596224 -4226216 415444 6359472 697676 -3047544 
2018.273 -1519275 -1742917 -3007335 -4195404 -4576651 -4568650 -4618255 
2021.648 -4552880 -4478246 -4001552 -3634257 -4212205 -4606223 -4599043 
2025.023 -4597830 -4595601 -4459062 -4127601 -4145849 -4438662 -4540387 
2028.398 -4533206 -4557175 -4606682 -4611239 -4585306 -4577437 -4559503 
2031.774 -4562781 -4574716 -4587535 -4557667 -4565273 -4516155 -4538911 
2035.149 -4503661 -4528255 -4549601 -4513794 -4316541 -4193959 -4354103 
2038.524 -4517827 -4471458 -4457750 -4392186 -4108729 -1394613 719348 
2041.899 -2330339 -4211253 -4294397 -4069603 -3431246 -3640040 -4359548 
2045.275 -4456930 -4313162 -4012451 -4008118 -4164391 -4269134 -4309422 
2048.650 -4264934 -4286851 -4346427 -4305124 -4239079 -4198488 -4209350 
2052.025 -4220736 -4231663 -4168165 -4189103 -4140171 -4129603 -4153758 
2055.400 -4189201 -4166721 -4165868 -4159961 -4161110 -4111519 -4147654 
2058.776 -4149722 -4161110 -4011630 -3472336 -3323540 -3953124 -4114998 
2062.151 -4169609 -4121299 -4173548 -4101508 -3657060 -239119 957013 
2065.526 -1851708 -2824112 -3844333 -4221196 -4318116 -4269035 -4349248 
2068.901 -4324743 -4331501 -4320084 -4384051 -4339603 -4322348 -4284948 
2072.277 -4373293 -4322348 -4349904 -4174532 -3945967 -4200162 -4434267 
2075.652 -4418983 -4469950 -4459062 -4529435 -4493922 -4380575 -4230876 
2079.027 -4361254 -4490019 -4537042 -4536944 -4636187 -4529271 -4343343 
2082.402 -4375392 -4518417 -4550027 -4596388 -4548650 -4485166 -4493660 
2085.778 -4546879 -4526451 -4463063 -4088576 -4126485 -4436530 -4523631 
2089.153 -4382215 -3199132 -1981682 -3411785 -4436104 -4526911 -4576093 
2092.528 -4559667 -4488216 -4470802 -4507990 -4535829 -4524091 -4545699 
2095.903 -4596388 -4612813 -4469326 -4413473 -4497693 -4565175 -4559798 
2099.279 -4588946 -4501431 -4397664 -4436268 -4558781 -4530189 -4537731 
2102.654 -4572519 -4642121 -4565175 -4466670 -4519598 -4629991 -4606977 
2106.029 -4503333 -4492774 -4586289 -4620353 -4572454 -4557306 -4549404 
2109.404 -4521467 -4545109 -4569962 -4597109 -4619599 -4660052 -4565700 
2112.780 -4490183 -4498283 -4493823 -4223591 -3753811 -3802654 -4475721 
2116.155 -4586454 -4575339 -4558814 -4533829 -4505695 -4526287 -4566519 
2119.530 -4698010 -4637564 -4589502 -4551568 -4541141 -4593142 -4616353 
2122.905 -4560946 -4633925 -4611043 -4501694 -4501694 -4562978 -4571536 
2126.281 -4540223 -4539207 -4632450 -4737964 -4628713 -4531894 -4572552 
2129.656 -4537862 -4522516 -4569438 -4624353 -4671066 -4629893 -4534583 
2133.031 -4503399 -4501431 -4559175 -4606682 -4643366 -4497759 -3874349 
2136.406 -3843939 -4346591 -4435349 -4500021 -4521106 -4470966 -4247938 
2139.781 -4360106 -4507695 -4491921 -4462866 -4444894 -4445287 -4533436 
2143.157 -4497135 -4462866 -4433349 -4423444 -4316475 -4279993 -4372473 
2146.532 -4422985 -4373686 -4307979 -4368110 -4465325 -4440728 -4400288 
2149.907 -4441548 -4478738 -4441745 -4428233 -4379525 -4299153 -4275006 
2153.282 -4301352 -4324677 -4410390 -4447583 -4460439 -4439187 -4443943 
2156.658 -4372046 -4284554 -4286555 -4461324 -4501759 -4396844 -4345344 
2160.033 -4366043 -4411571 -4372669 -4173055 -4236814 -4434464 -4357482 
2163.408 -4248168 -4285177 -4403010 -4476837 -4517270 -4485723 -4367322 
2166.783 -4360401 -4366273 -4445287 -4456110 -4449026 -4524550 -4506711 
2170.159 -4435251 -4409963 -4319723 -4324907 -4435743 -4548125 -4520253 
2173.534 -4445812 -4455520 -4487363 -4442532 -4401928 -4449846 -4570257 
2176.909 -4530812 -4462604 -4428068 -4459291 -4449452 -4452568 -4506612 
2180.284 -4478279 -4387791 -4335405 -4345312 -4356334 -4367585 -4451912 
2183.660 -4385167 -4274449 -4208628 -4263293 -4271988 -4278648 -4273957 
2187.035 -4252006 -4275893 -4282979 -4286719 -4284620 -4240457 -4237734 
2190.410 -4189759 -4181259 -4141812 -4192515 -4205511 -4132065 -4073904 
2193.785 -4041242 -3999385 -4010875 -3978603 -3945375 -3971938 -3980802 
2197.161 -3942946 -3917859 -3855105 -3853266 -3883807 -3851722 -3761760 
2200.536 -3726808 -3744711 -3760019 -3758015 -3794081 -3746321 -3684264 
2203.911 -3656994 -3661725 -3539451 -3472763 -3518976 -3514210 -3550823 
2207.286 -3524728 -3492978 -3492123 -3460535 -3453534 -3478154 -3520258 
2210.662 -3504810 -3530644 -3559071 -3579972 -3575569 -3581812 -3579611 
2214.037 -3585986 -3573663 -3532123 -3530282 -3544480 -3597191 -3695401 
2217.412 -3714324 -3678810 -3619471 -3725987 -3795789 -3799632 -3804395 
2220.787 -3860359 -3877436 -3859276 -3873331 -4027848 -4113751 -4121857 
2224.163 -4127601 -4191236 -4259028 -4251908 -4271889 -4357383 -4327827 
2227.538 -4332288 -4420754 -4441122 -4462078 -4471229 -4480444 -4440564 
2230.913 -4448763 -4491003 -4497037 -4559503 -4548584 -4551961 -4554486 
2234.288 -4530157 -4486084 -4522057 -4519172 -4502021 -4478804 -4478804 
2237.664 -4479460 -4515991 -4572814 -4548289 -4470966 -4484904 -4495922 
2241.039 -4471327 -4433611 -4494577 -4436793 -4412030 -4444533 -4509400 
2244.414 -4466899 -4430266 -4429971 -4489363 -4497365 -4370308 -4289311 
2247.789 -4296857 -4365190 -4428725 -4378672 -4305814 -4391727 -4457750 
2251.165 -4329565 -4273957 -4348625 -4339406 -4306535 -4262473 -4322118 
2254.540 -4452306 -4377065 -4252827 -4349806 -4386347 -4273268 -4306043 
2257.915 -4391268 -4383232 -4302959 -4347444 -4446533 -4443090 -4371324 
2261.290 -4364829 -4407766 -4383494 -4364272 -4446927 -4512121 -4498054 
2264.666 -4471130 -4530943 -4456766 -4384872 -4437908 -4469950 -4407864 
2268.041 -4426166 -4637105 -4672344 -4483657 -4510613 -4659429 -4536583 
2271.416 -4475328 -4597765 -4633532 -4503956 -4457160 -4658019 -4593142 
2274.791 -4505858 -4573011 -4592585 -4455421 -4470900 -4517630 -4372210 
2278.167 -4356268 -4549207 -4551764 -4374867 -4359089 -4381690 -4217750 
2281.542 -4223460 -4129045 -4013863 -4137151 -4256272 -4234616 -3962383 
2284.917 -3951680 -4227692 -4235239 -4046231 -3676707 -3902426 -4050663 
2288.292 -4073083 -3894840 -3434435 -3739127 -4191597 -4098160 -3313149 
2291.667 -3193639 -3693791 -3905053 -3686498 -2818615 -2886918 -3734495 
2295.043 -3806727 -3102093 -2293986 -2697552 -3484925 -3266125 -2525663 
2298.418 -2237952 -3261455 -3099099 -2659057 -1998404 -2402245 -2750400 
2301.793 -2351629 -2016115 -1957405 -2336172 -2332580 -2420829 -1693247 
2305.168 -1897995 -1888395 -1966377 -1106152 -1082058 -1662551 -1688032 
2308.544 -735109 -27689 -1264530 -1742290 -1157607 -55916 -1352302 -1855569 
2312.401 -1511648 -656938 -2044411 -2271079 -1935140 -1868403 -2321045 
2315.776 -1868436 -1951501 -2178613 -1815547 -1678691 -2252521 -2311751 
2319.152 -1582501 -1894729 -2500560 -2606231 -2464946 -3323902 -2658299 
2322.527 -1457394 903055 -2992956 -2711152 -1599370 -3368881 -4602026 
2325.902 -3702892 -3908994 -6812382 -4012155 -3687024 -4213091 -5262236 
2329.277 -4499791 -4197208 -2631953 -3593445 -4847974 -4394187 -3953420 
2332.653 -5910200 -5986973 -5521584 -4862588 -6846369 -5947755 -5101904 
2336.028 -2056679 -6436488 -6518978 -7393219 -10122890 -8565240 -7461002 
2339.403 -8990806 -8276724 -7540823 -8488921 -11404429 -8521932 -6657710 
2342.778 -6323386 -6273322 -5517527 -3813131 -3111173 -4336651 -2262410 
2346.154 -2799883 -4228579 -4153201 -3837107 -3467504 -2744177 -2281626 
2349.529 -2278067 -3278062 -3518056 -2781480 -2682174 -3848142 -3507670 
2352.904 -6364268 -7668324 -5795424 -2896726 -3935197 -5648141 -3553123 
2356.279 -9329635 -7590089 -4299482 -6115617 -6407530 -6747140 -7061188 
2359.655 -4450305 -5125841 -11027258 -5977201 555459 -4261686 -4135445 
2363.030 -1623006 -4305321 775375 -2339040 -3939859 -1189231 -4879428 
2366.405 -5280142 -7434327 -4784305 -3550132 -6016058 -3793523 -2517855 
2369.780 -3994198 -3492682 -3484268 -3853528 -3584244 -3500636 -3137193 
2373.156 -2637453 -2097437 -2235842 -2234095 -2719779 -2373873 -2652536 
2376.531 -2134994 -2300117 -2117617 -2313860 -2334722 -2258751 -2130147 
2379.906 -2148644 -2296063 -2424585 -2436677 -2387812 -2526914 -2601126 
2383.281 -2600665 -2731929 -2960081 -3093769 -3234225 -3339651 -3474045 
2386.656 -3702530 -3890834 -3970592 -3997448 -4084177 -4191761 -4225691 
2390.032 -4196355 -4192023 -4206364 -4267066 -4324448 -4350691 -4303124 
2393.407 -4367749 -4321528 -4248168 -4227660 -4174335 -4194583 -4282651 
2396.782 -4251646 -4278517 -4339932 -4244066 -4205543 -4273957 -4246429 
2400.157 -4265164 -4311095 -4331731 -4295151 -4285177 -4290132 -4286555 
2403.533 -4315360 -4243443 -4249086 -4343245 -4321364 -4292363 -4190284 
2406.908 -4177092 -4240161 -4253581 -4222574 -4248988 -4194583 -4191564 
2410.283 -4219949 -4283570 -4245379 -4214567 -4262211 -4336946 -4292690 
2413.658 -4143059 -4113915 -4172169 -4173548 -4143618 -4169249 -4221130 
2417.034 -4227430 -4201901 -4139253 -4140827 -4205806 -4283996 -4254205 
2420.409 -4181391 -4151461 -4168723 -4154218 -4150116 -4156515 -4169708 
2423.784 -4149755 -4156843 -4198422 -4204723 -4169872 -4166984 -4164424 
2427.159 -4215092 -4151034 -4120939 -4196487 -4177912 -4152282 -4165311 
2430.535 -4158517 -4117131 -4110436 -4134887 -4177978 -4217947 -4088313 
2433.910 -4024664 -4072328 -4152052 -4180439 -4151658 -4148573 -4167608 
2437.285 -4150181 -4163604 -4196847 -4238685 -4168362 -4216208 -4252499 
2440.660 -4202426 -4175714 -4173285 -4198718 -4174696 -4190842 -4195863 
2444.036 -4125336 -4097110 -4173088 -4197700 -4154677 -4170988 -4171611 
2447.411 -4164031 -4226839 -4233501 -4133148 -4167444 -4212205 -4142272 
2450.786 -4188742 -4241441 -4222475 -4186510 -4167903 -4224772 -4280518 
2454.161 -4299482 -4263523 -4241736 -4186478 -4134132 -4090020 -4097701 
2457.537 -4125599 -4124024 -4115392 -4124122 -4208201 -4200523 -4185591 
2460.912 -4267985 -4212434 -4190021 -4245805 -4197865 -4168691 -4191794 
2464.287 -4171086 -4182113 -4169413 -4166951 -4206921 -4240096 -4232615 
2467.662 -4265852 -4266213 -4184837 -4213452 -4239801 -4261226 -4255222 
2471.038 -4178733 -4159337 -4235535 -4216733 -4189693 -4188774 -4163407 
2474.413 -4180571 -4246297 -4248004 -4221852 -4226019 -4236158 -4237734 
2477.788 -4229071 -4272447 -4259684 -4224017 -4207643 -4191761 -4176009 
2481.163 -4146998 -4178175 -4247839 -4262867 -4278911 -4205511 -4153364 
2484.539 -4110009 -4113718 -4182999 -4250858 -4228677 -4220736 -4240522 
2487.914 -4240982 -4243640 -4260012 -4204362 -4134329 -4112471 -4121398 
2491.289 -4129242 -4115457 -4102263 -4188315 -4197897 -4134231 -4108171 
2494.664 -4192122 -4174073 -4147752 -4168822 -4196618 -4142436 -4146571 
2498.040 -4201343 -4229432 -4188381 -4243738 -4218833 -4136725 -4090217 
2501.415 -4121398 -4082273 -4065401 -4093860 -4141451 -4211286 -4147720 
2504.790 -4016686 -4060675 -4140073 -4119363 -4071409 -4082930 -4113258 
2508.165 -4151855 -4084538 -4081387 -4175812 -4220736 -4164720 -4162061 
2511.541 -4210334 -4206266 -4197963 -4172366 -4178109 -4221556 -4230022 
2514.916 -4192154 -4156646 -4128159 -4099670 -4187692 -4298301 -4334158 
2518.291 -4255222 -4134789 -4084670 -4152019 -4141517 -4216208 -4244197 
2521.666 -4191039 -4210728 -4322479 -4332517 -4314081 -4369323 -4299252 
2525.042 -4205445 -4237274 -4217652 -4173613 -4213846 -4229071 -4189234 
2528.417 -4187298 -4196125 -4250858 -4217356 -4167050 -4180472 -4197241 
2531.792 -4156286 -4149558 -4149393 -4267526 -4319199 -4307224 -4294561 
2535.167 -4301844 -4221196 -4211712 -4222837 -4208825 -4192417 -4192877 
2538.542 -4221491 -4302139 -4232811 -4138596 -4205412 -4271889 -4199768 
2541.918 -4166689 -4146473 -4112208 -4126387 -4094747 -4114473 -4160618 
2545.293 -4130522 -4101869 -4117296 -4111749 -4168165 -4246199 -4192778 
2548.668 -4117853 -4052107 -4112799 -4246264 -4241178 -4162849 -4195141 
2552.043 -4167772 -4076070 -4093926 -4103412 -4079746 -4182572 -4189103 
2555.419 -4119199 -4122415 -4093335 -4068783 -4142994 -4202984 -4213255 
2558.794 -4164162 -4074691 -4080567 -4212992 -4134494 -4052830 -4094943 
2562.169 -4106431 -4133345 -4142173 -4068422 -4061856 -4078827 -4040454 
2565.544 -4060314 -4151199 -4135314 -4118444 -4169544 -4138136 -4143388 
2568.920 -4203870 -4130949 -4099670 -4061561 -4105512 -4160880 -4193402 
2572.295 -4224050 -4197865 -4153102 -4157762 -4162947 -4095665 -4060740 
2575.670 -4121201 -4113357 -4140631 -4162750 -4130883 -4096847 -4137972 
2579.045 -4132623 -4116180 -4112372 -4098521 -4095665 -4089921 -4095468 
2582.421 -4184574 -4174368 -4166984 -4174335 -4139449 -4107449 -4142009 
2585.796 -4144897 -4147359 -4119954 -4074888 -4129078 -4211745 -4176009 
2589.171 -4061496 -4020067 -4031755 -4077744 -4136955 -4110370 -4131408 
2592.546 -4140992 -4073805 -4036941 -4063202 -4100490 -4132327 -4064121 
2595.922 -4063662 -4119363 -4127207 -4077875 -4059920 -4110830 -4140335 
2599.297 -4147260 -4116278 -4113554 -4165868 -4167444 -4110633 -4136069 
2602.672 -4148573 -4153135 -4187495 -4167411 -4177354 -4186412 -4209612 
2606.047 -4103969 -4078367 -4027486 -4050203 -4114539 -4124483 -4132853 
2609.423 -4172530 -4137185 -4097044 -4086672 -4121759 -4152413 -4101803 
2612.798 -4019115 -4048365 -4113095 -4160946 -4244427 -4212926 -4136889 
2616.173 -4168789 -4182933 -4159206 -4117919 -4096978 -4082667 -4136955 
2619.548 -4189759 -4151658 -4207971 -4261686 -4180078 -4136266 -4068028 
2622.924 -4065074 -4092842 -4138629 -4190481 -4203509 -4108171 -4068586 
2626.299 -4073542 -4095107 -4143552 -4155957 -4129505 -4150411 -4145751 
2629.674 -4154382 -4119002 -4060117 -4043867 -4107613 -4162390 -4196322 
2633.049 -4135544 -4042259 -4063137 -4120577 -4106727 -4140827 -4120577 
2636.425 -4101508 -4137972 -4123761 -4096059 -4090644 -4097142 -4123695 
2639.800 -4140007 -4108926 -4040158 -4050368 -4046920 -4063662 -4137447 
2643.175 -4204887 -4265689 -4252400 -4093466 -4039141 -4036252 -4074593 
2646.550 -4164851 -4211122 -4157927 -4123301 -4132590 -4112996 -4086639 
2649.926 -4152183 -4151560 -4165671 -4124286 -4085458 -4126682 -4118904 
2653.301 -4103313 -4128980 -4108105 -4151757 -4130227 -4034775 -4030310 
2656.676 -4120939 -4128750 -4120118 -4096388 -4072820 -4087132 -4108171 
2660.051 -4086179 -4093565 -4098259 -4111716 -4100490 -4088936 -4090381 
2663.427 -4140894 -4127339 -4112274 -4248200 -4265492 -4172005 -4167968 
2666.802 -4150116 -4065401 -4065566 -4083356 -4072886 -4100130 -4107908 
2670.177 -4145455 -4144832 -4088838 -4080796 -4149820 -4089232 -4054569 
2673.552 -4092219 -4121759 -4148638 -4098619 -4056013 -4148311 -4215191 
2676.927 -4134854 -4074231 -4069702 -4081552 -4115917 -4021118 -3999779 
2680.303 -4098127 -4113455 -4111256 -4138694 -4092055 -4126584 -4139088 
2683.678 -4080895 -4087493 -4133049 -4043408 -4053027 -4092744 -4106595 
2687.053 -4097208 -4096847 -4044064 -4007789 -3956539 -3994821 -4089692 
2690.428 -4128947 -4087296 -4080468 -4080698 -4046166 -4040782 -4077514 
2693.804 -4133673 -4147293 -4034938 -4079746 -4154021 -4142370 -4130489 
2697.179 -4079615 -4050466 -4163309 -4188512 -4087132 -4063924 -4104363 
2700.554 -4058410 -4043638 -4063301 -4076332 -4069308 -4060281 -4088412 
2703.929 -4105184 -4052107 -4054372 -4064483 -4017474 -3968359 -4009693 
2707.305 -4083094 -4103969 -4174335 -4179816 -4096781 -4070621 -3993016 
2710.680 -4042686 -4103182 -4090939 -4031098 -4070358 -4074067 -4094320 
2714.055 -4093565 -4029555 -4034479 -4030507 -4041504 -4075052 -4061134 
2717.430 -3995347 -3960250 -4050728 -4086212 -4050630 -3981722 -3945048 
2720.806 -3976338 -4052206 -4063859 -4087853 -4135183 -4020888 -3963303 
2724.181 -4002668 -3993016 -3986253 -3988157 -4008774 -4027651 -4081486 
2727.556 -4106957 -4131507 -4079713 -4014355 -4048726 -4109549 -4051483 
2730.931 -3998367 -3976797 -4050991 -4059657 -4004113 -3975122 -3981131 
2734.307 -3940221 -3974006 -4006772 -4000403 -4036843 -4055455 -4048464 
2737.682 -4057589 -4045049 -4131605 -4117131 -4050466 -4033133 -3981722 
2741.057 -3924131 -4050663 -4126682 -4081978 -4029292 -4025024 -3994001 
2744.432 -4065927 -4120282 -4050663 -3976338 -4000107 -3957458 -3926693 
2747.808 -3912113 -3929549 -3948232 -4006476 -3965929 -3913591 -3876352 
2751.183 -3889751 -3924985 -3926955 -3978209 -4026732 -3956736 -3958739 
2754.558 -3959888 -3950432 -3936478 -3840523 -3812507 -3887846 -3908271 
2757.933 -3943865 -3980573 -3959987 -3924066 -3930961 -3894972 -3866796 
2761.309 -3878159 -3894775 -3884168 -3837370 -3828371 -3890309 -3842756 
2764.684 -3788695 -3834775 -3894840 -3831754 -3764158 -3752661 -3823806 
2768.059 -3930797 -3974137 -3935394 -3888306 -3919304 -3901966 -3916776 
2771.434 -4030474 -3918746 -3918877 -4016982 -4027092 -3997185 -3993738 
2774.810 -3936642 -3934901 -3963270 -3969213 -3917466 -3942683 -3942585 
2778.185 -3962745 -3957688 -3949020 -3959166 -3866763 -3871886 -3994920 
2781.560 -3954602 -3936379 -3997218 -4016621 -4023186 -4070785 -4070161 
2784.935 -4038025 -4023120 -3986515 -3949677 -3990192 -4027191 -4019838 
2788.311 -4044590 -4046067 -3948758 -3926529 -3922490 -4010054 -4013140 
2791.686 -3939859 -4017803 -3999385 -3912638 -4000928 -4062382 -4021808 
2795.061 -4022103 -4001059 -3939039 -3916283 -3854481 -3873692 -3973415 
2798.436 -4053125 -4079746 -4060051 -3925609 -3901408 -3907089 -3815135 
2801.812 -3823543 -3936543 -3929188 -3932241 -3952337 -3963566 -4007757 
2805.187 -4005852 -3936346 -3934278 -3989897 -3992162 -3986089 -3982313 
2808.562 -3918024 -3962614 -3924886 -3866862 -3876812 -3886861 -3852642 
2811.937 -3954996 -3950235 -3913459 -3930731 -3914412 -3888470 -3924033 
2815.313 -3960709 -3987533 -3947609 -3908468 -3840424 -3838027 -3900160 
2818.688 -3942486 -3936346 -3847354 -3760840 -3832575 -3862362 -3890736 
2822.063 -3857732 -3815595 -3822361 -3843971 -3830309 -3800650 -3824167 
2825.438 -3903871 -3927776 -3913952 -3928236 -3862198 -3842493 -3852017 
2828.813 -3826006 -3862001 -3847781 -3886138 -3933063 -3933621 -3864924 
2832.189 -3801274 -3866500 -3899602 -3830440 -3811489 -3890375 -3902689 
2835.564 -3933260 -3931979 -3906563 -3857666 -3768592 -3794147 -3827287 
2838.939 -3881180 -3869226 -3869029 -3832279 -3806989 -3836680 -3889422 
2842.314 -3921702 -3865646 -3843939 -3819668 -3756175 -3753088 -3791224 
2845.690 -3754205 -3752102 -3725198 -3694843 -3802391 -3880457 -3860852 
2849.065 -3843774 -3866303 -3754631 -3744580 -3859637 -3904331 -3832640 
2852.440 -3758672 -3679730 -3696223 -3741985 -3700066 -3688206 -3640664 
2855.815 -3614476 -3687648 -3645428 -3581155 -3590455 -3620654 -3675262 
2859.191 -3641584 -3555884 -3492222 -3437262 -3462738 -3464316 -3447946 
2862.566 -3401297 -3391237 -3414415 -3392257 -3352540 -3420266 -3441108 
2865.941 -3414316 -3460174 -3499979 -3450772 -3390120 -3342742 -3322553 
2869.316 -3344222 -3368848 -3368487 -3355532 -3284837 -3309565 -3404092 
2872.692 -3395610 -3332451 -3292137 -3287007 -3267013 -3224194 -3288553 
2876.067 -3334588 -3323671 -3311571 -3431509 -3460338 -3524366 -3561865 
2879.442 -3520093 -3468490 -3433350 -3404914 -3468194 -3473026 -3508294 
2882.817 -3623841 -3668954 -3593084 -3588911 -3562457 -3572743 -3464940 
2886.193 -3450312 -3580859 -3657750 -3596009 -3560156 -3599295 -3589896 
2889.568 -3657717 -3737320 -3710316 -3721617 -3754007 -3717840 -3644213 
2892.943 -3655877 -3673980 -3624137 -3571264 -3555522 -3548719 -3548095 
2896.318 -3541884 -3559992 -3575207 -3612702 -3630347 -3622559 -3534587 
2899.694 -3562259 -3594399 -3686301 -3734199 -3657158 -3575141 -3590093 
2903.069 -3620062 -3655417 -3650423 -3592558 -3563869 -3554010 -3454783 
2906.444 -3423718 -3470331 -3512567 -3422534 -3397287 -3463461 -3504284 
2909.819 -3510398 -3539057 -3492419 -3516971 -3496363 -3505303 -3546025 
2913.195 -3498598 -3552663 -3646973 -3562555 -3463855 -3419247 -3426052 
2916.570 -3484005 -3482821 -3404782 -3411785 -3381079 -3272702 -3204986 
2919.945 -3199625 -3180219 -3241723 -3302397 -3268591 -3190580 -3155582 
2923.320 -3152884 -3201236 -3172654 -3196402 -3110251 -2995292 -2932831 
2926.696 -2982491 -2929804 -2918844 -2915026 -2821216 -2720964 -2631788 
2930.071 -2593057 -2524147 -2440170 -2342203 -2272397 -2248862 -2155864 
2933.446 -1922770 -1954107 -2088105 -2001537 -1940979 -2056613 -2154150 
2936.821 -2075575 -2157249 -2302951 -2379574 -2285087 -2114122 -2039959 
2940.197 -2093777 -2084973 -1992665 -2001537 -2125201 -2197272 -2299260 
2943.572 -2300644 -2239501 -2276056 -2311487 -2316497 -2300578 -2317321 
2946.947 -2384813 -2558043 -3039022 -3200513 -2866807 -2658826 -2736802 
2950.322 -2768245 -2839222 -2983445 -3039713 -2990784 -3093078 -3125680 
2953.698 -3076267 -2987855 -3169364 -3253299 -3174857 -3228864 -3265204 
2957.073 -3258134 -3425658 -4081355 -4530451 -3722242 -3238533 -3175778 
2960.448 -3169792 -3073207 -2981734 -2958600 -3083570 -3224095 -3236165 
2963.823 -3223733 -3213472 -3223832 -3155023 -2920095 -2801529 -2963339 
2967.198 -3121469 -3285297 -3462540 -3817697 -3499913 -2949188 -2758302 
2970.574 -2687311 -2619504 -2553827 -2580442 -2666466 -2435590 -2372686 
2973.949 -2845082 -2924505 -2647959 -2857129 -3180515 -3131174 -3140319 
2977.324 -3058500 -2800410 -2904395 -3826236 -3919042 -3155845 -2779702 
2980.699 -2802089 -2933193 -3137029 -3215379 -3128608 -3101369 -3106600 
2984.075 -3001083 -3008125 -3140911 -3058862 -2948431 -2976798 -2792114 
2987.450 -2261190 -2354562 -2820162 -3475327 -3493701 -2990356 -2848999 
2990.825 -2851994 -2845049 -2590059 -2408604 -2428836 -2453415 -2219821 
2994.200 -1771693 -1711828 -2162755 -2322166 -2536500 -2607614 -2583999 
2997.576 -2642031 -2740325 -2712568 -3064521 -2967485 -2667454 -2626750 
3000.951 -2656455 -2581265 -2552905 -2623357 -2638639 -2358088 -2022810 
3004.326 -1742455 -1641624 -2066473 -2528627 -2753627 -2799159 -2787175 
3007.701 -2782303 -2728636 -2838564 -3027802 -2662976 -1726449 -1737538 
3011.077 -2569572 -2787175 -1830823 -443031 -1445803 -2509356 -3050472 
3014.452 -3600412 -3722603 -3255075 -3304764 -4546846 -5493317 -6206726 
3017.827 -6793788 -6530174 -5233691 -3970756 -3439727 -3478548 -3563146 
3021.202 -3613622 -3438511 -3183409 -3130088 -3339914 -3514112 -3690309 
3024.578 -3641913 -3311078 -2456710 -2382111 -3234685 -3566926 -3583587 
3027.953 -3617006 -3752102 -3877239 -3593281 -3257246 -2193053 -1236315 
3031.328 -1168809 -117765 -1251216 -3111797 -3385320 -2793365 -1584019 
3034.703 -2064000 -3034547 -2825298 -2898570 -3310486 -3364870 -3447748 
3038.079 -3590389 -3851919 -3603599 -3456361 -3538630 -3497185 -3449589 
3041.454 -3473322 -3455079 -3490315 -3501721 -3503989 -3417604 -3352047 
3044.829 -3460009 -3607083 -3611913 -3551184 -3437163 -3401561 -3525450 
3048.204 -3320482 -1668195 -1566687 -2853179 -3323277 -3280002 -3381539 
3051.580 -3451660 -3411357 -3397714 -3424375 -3420989 -3438708 -3446203 
3054.955 -3440187 -3143509 -2014729 -509392 -1690937 -3347050 -4219030 
3058.330 -3816679 -3415828 -3226825 -2771636 -2820195 -3359905 -3436506 
3061.705 -3486273 -3572019 -3551315 -3445579 -3073931 -1169239 -266372 
3065.081 -2348531 -3361747 -3237152 -2547964 -1739188 -3249550 -3951581 
3068.456 -3684132 -3563902 -3557888 -3619010 -3655976 -3660181 -3613655 
3071.831 -3570672 -3562818 -3640138 -3781665 -3741623 -3668888 -3684757 
3075.206 -3645297 -3564888 -3887550 -4499136 -4028767 -2878163 -2473117 
3078.582 -3098704 -2902453 -1509105 -1933754 -3215314 -2875694 -2321540 
3081.957 -2783686 -2704665 -2794517 -3403829 -3673619 -3807548 -3753614 
3085.332 -3775556 -4388808 -4605076 -3703614 -3245110 -3358195 -3550921 
3088.707 -3617039 -3693988 -3729830 -3796775 -3749441 -3713864 -3676149 
3092.083 -3610566 -3667146 -3514605 -3075806 -2988151 -3196105 -3661660 
3095.458 -2664425 -367523 -1435731 -2971763 -3339355 -3556146 -3542968 
3098.833 -3424277 -2635905 -2037980 -2643941 -1986959 -593975 -1945036 
3102.208 -2972026 -2318771 -1984980 -2960344 -3895596 -4287310 -3814117 
3105.583 -3640467 -3699344 -3563508 -3028690 -2732917 -3117160 -3436900 
3108.959 -3531005 -3269775 -3059520 -3179660 -3436375 -3498795 -3098540 
3112.334 -2692811 -2998484 -3643851 -3890769 -3171305 -2848242 -2739996 
3115.709 -889093 -768185 -2900544 -3581320 -3208637 -2415754 -1668030 
3119.084 -1142637 -2305127 -3401462 -3605144 -3541160 -3308480 -2388438 
3122.460 -502673 -1170693 -2962516 -3510661 -3618945 -3425033 -3232317 
3125.835 -3062712 -2593452 -1900503 -2618714 -3570179 -3655055 -3641091 
3129.210 -3667048 -3613983 -3561963 -3565841 -3393276 -3471580 -3444757 
3132.585 -2098163 27843 -1280751 -3273425 -3548128 -3629788 -3764979 
3135.961 -3839505 -3804198 -3753449 -3737583 -3807022 -3683344 -3650620 
3139.336 -3627488 -3525385 -3514506 -3650718 -3677430 -3679467 -3612800 
3142.711 -3409319 -3426282 -3619733 -3661988 -3758048 -3801439 -3782092 
3146.086 -3820127 -3800256 -3733937 -3785180 -3694054 -3447584 -3220707 
3149.462 -3422206 -3619931 -3671943 -3548029 -3477234 -3420299 -3464184 
3152.837 -3636491 -3728187 -3635440 -3642373 -3694777 -3751445 -3739948 
3156.212 -3827747 -3819865 -3662547 -3522887 -3614180 -3778118 -3813657 
3159.587 -3762745 -3768888 -3695237 -3692576 -3648780 -3641551 -3680091 
3162.963 -3691327 -3644246 -3641945 -3671253 -3681011 -3630807 -3602844 
3166.338 -3529296 -3524991 -3489296 -3362832 -3442850 -3638035 -3517990 
3169.713 -3428846 -3546715 -3713503 -3687648 -3752726 -3749244 -3816219 
3173.088 -3790041 -3717773 -3619504 -3659360 -3618748 -3754270 -3744711 
3176.464 -3689685 -3636392 -3095546 -763522 -32394 -2392755 -3369867 
3179.839 -3459187 -3597290 -3685446 -3604815 -3668592 -3672699 -3634093 
3183.214 -3592098 -3665307 -3510693 -2775258 -1845308 -2367315 -3439826 
3186.589 -3754631 -3739192 -3725888 -3775457 -3807811 -3824594 -3732491 
3189.965 -3604618 -3538071 -3601529 -3633468 -3646677 -3663960 -3716230 
3193.340 -3731210 -3735415 -3709824 -3586741 -3569456 -3160582 -2675884 
3196.715 -3019839 -2949451 -1105094 -750920 -2799258 -3454356 -3184429 
3200.090 -3119199 -3489757 -3544611 -3459648 -3388936 -3464381 -3513257 
3203.466 -3625615 -3649765 -3746715 -3685939 -3593741 -3583357 -3712945 
3206.841 -3700625 -3694711 -3533569 -3447189 -3339750 -2438951 -649693 
3210.216 -1511582 -3334588 -3734758 -3594201 -3509970 -3551743 -3484859 
3213.591 -2406726 -250378 -902253 -2982294 -3529460 -3478154 -2994272 
3216.967 -3170384 -3565973 -3742510 -3606064 -2617133 -824443 -1311474 
3220.342 -2240028 -2769167 -3366283 -3118640 -2977456 -3424507 -3615199 
3223.717 -3677792 -3673947 -3625845 -3580859 -3461620 -3367697 -3382953 
3227.092 -2746581 -2086391 -2996937 -3664551 -3367336 -2806994 -2125926 
3230.468 -2572042 -3175088 -3453073 -3498532 -3203045 -2491863 -2513836 
3233.843 -3288191 -3528474 -3536855 -3501195 -3421351 -2785826 -1982110 
3237.218 -2753627 -3524366 -3651047 -3704797 -3620686 -3214656 -2549248 
3240.593 -2882705 -3404026 -3374865 -3401988 -3581977 -3524169 -3377199 
3243.969 -3268394 -1880873 634559 -291405 -2867103 -3549410 -3545006 
3247.344 -3453534 -3619569 -3667607 -3702103 -3684757 -3606984 -3579972 
3250.719 -3637576 -3540963 -3543461 -3489921 -3467241 -3471152 -2616375 
3254.094 -486986 -1163026 -3126568 -3418064 -3289769 -3224621 -2518745 
3257.469 -2125036 -3024248 -3541259 -3743955 -3702793 -3281844 -2346685 
3260.845 -2536961 -3332714 -3613753 -3643293 -3521375 -3348595 -3417439 
3264.220 -3486042 -3104659 -2823290 -3217254 -3393276 -3274971 -3412146 
3267.595 -3536526 -3612077 -3731670 -3784556 -3624860 -3519600 -3271518 
3270.970 -3213833 -3179660 -3114989 -3244650 -3016812 -1109126 224650 
3274.346 -1762849 -3215412 -3140746 -2647695 -631198 -264617 -2497628 
3277.721 -3518352 -3675426 -3487029 -3249550 -3038660 -2685533 -3043793 
3281.096 -3582864 -3703056 -3631825 -3216235 -2555573 -2757446 -2971138 
3284.471 -3077616 -3510398 -3641420 -3633929 -3589732 -3709134 -3714751 
3287.847 -3516905 -2682075 -2175481 -2856866 -3473979 -3522164 -3316536 
3291.222 -2283802 -2112012 -2597799 -1992665 -2271705 -3100283 -3232580 
3294.597 -3230377 -3409845 -3439530 -3538959 -3483117 -2994831 -2404222 
3297.972 -2608800 -3184725 -3551677 -3569851 -3407478 -3307789 -3576193 
3301.348 -3782585 -3788136 -3745237 -3533306 -3276977 -3362272 -3483643 
3304.723 -3562095 -3730356 -3727925 -3611354 -3627126 -3583587 -3363917 
3308.098 -2560316 -823980 -612074 -2590059 -3240704 -2568748 -2829314 
3311.473 -3403500 -3104494 -3022932 -2255883 -1377835 -2500956 -3454356 
3314.849 -3513388 -3544644 -3630708 -3625254 -3426742 -3189889 -3331168 
3318.224 -3460535 -3454158 -3611354 -3574287 -3458431 -3360628 -3395511 
3321.599 -3478187 -3581484 -3412212 -3130779 -3231692 -3277175 -2835897 
3324.974 -2905218 -3229226 -2991968 -2627771 -2588412 -2548623 -2825759 
3328.350 -3486273 -3709626 -3475688 -3179035 -3410766 -3577212 -3623972 
3331.725 -3674243 -3631793 -3492255 -3489658 -3542376 -3040503 -1983760 
3335.100 -2554486 -3478647 -3218668 -1370865 -322993 -2463596 -3554832 
3338.475 -3609613 -3399752 -3428057 -3387654 -3336462 -3347378 -3293419 
3341.851 -3265665 -3300720 -3424211 -3597947 -3617499 -3606688 -3575832 
3345.226 -3603533 -3518417 -3456788 -3465663 -3596403 -3669578 -3699771 
3348.601 -3639678 -3720697 -3652690 -3492846 -3446138 -3381572 -3352409 
3351.976 -3542278 -3625418 -3511844 -3311242 -3342907 -3352507 -3278983 
3355.352 -2504942 -1777600 -2561502 -2606725 -2488601 -3278325 -3603632 
3358.727 -3577967 -3087420 -2553728 -2772327 -3292762 -2957678 -1552391 
3362.102 -1578341 -2675588 -3235770 -3394722 -2617396 -1805978 -2139774 
3365.477 -1236513 -525939 -2211481 -2999998 -2070265 -1650866 -2720931 
3368.853 -2763866 -2871645 -3288027 -3567747 -3514966 -3526108 -3635801 
3372.228 -3729337 -3743430 -3784851 -3671352 -3500833 -3356551 -3442554 
3375.603 -3478614 -3524432 -3549673 -3630445 -3541522 -3322257 -3156996 
3378.978 -3281647 -3470331 -3532123 -3313675 -3373254 -3557691 -3649601 
3382.354 -3573038 -3171173 -2896726 -2802747 -1587981 -1631985 -2342302 
3385.729 -1663244 -2238380 -3301706 -3567912 -3600510 -3631990 -3670859 
3389.104 -3734922 -3712649 -3602416 -3637280 -3538137 -3217714 -2359867 
3392.479 585286 2455677 -870145 -3297135 -3440911 -3463263 -3593314 -3405867 
3396.337 -3167621 -1323862 1187266 -811843 -3094888 -3398207 -3584507 
3399.712 -3642471 -3529230 -3242019 -2872370 -2829676 -2960509 -3188935 
3403.087 -3134463 -2297744 -2521611 -3362996 -3662185 -3627784 -3479731 
3406.462 -3397747 -3382558 -3492682 -3624793 -3392684 -3205249 -3421088 
3409.838 -3551217 -3500340 -3621015 -3654333 -3652328 -3526009 -3213669 
3413.213 -3079623 -3321896 -3494720 -3672075 -3629230 -3528113 -3520192 
3416.588 -3487127 -3469049 -3464480 -3328604 -2969855 -2849525 -2089029 
3419.963 315427 4268770 2432852 -866408 40832 -423965 -1723049 -2271639 
3423.821 -2716651 -3292137 -3404946 -3629460 -3561536 -3633435 -3601661 
3427.196 -3478450 -2503130 -2217349 -3049650 -3397747 -3465729 -3589798 
3430.571 -2828787 -1517195 -1993193 -3230475 -3113706 -2907292 -3286908 
3433.947 -3604059 -3490052 -3521375 -3471514 -3464841 -3328768 -3531400 
3437.322 -3496593 -3310223 -2916112 -3089328 -3288585 -3326663 -3159332 
3440.697 -3253332 -3321468 -2919568 556355 3688336 613986 -2670023 -3378481 
3444.554 -3173903 -1460466 -1447256 -2784871 456173 12436991 14308592 
3447.930 2513061 -1417303 -2379112 -3256325 -3453238 -3359905 -3480750 
3451.305 -3539320 -3584343 -3482460 -3432068 -3463724 -3593643 -3599590 
3454.680 -3546813 -3423850 -2964984 -2765018 -3183048 -3408431 -3374996 
3458.055 -3229554 -2725804 -2898570 -3511515 -3188442 -2246028 -1571936 
3461.431 -950459 -1366076 137140 1883018 -1297434 -3230475 -3328209 -3290230 
3465.288 -3626174 -3453172 -2589400 -187157 269439 -2433284 -3453303 
3468.663 -3380125 -3430851 -3406032 -2728735 -2275397 -2890144 -3201072 
3472.039 -3212551 -3489757 -3402185 -3088012 -3109528 -1931841 948811 64891 
3475.896 -2853475 -3472533 -3565710 -3581057 -3664551 -3577343 -3499091 
3479.271 -3020596 -2672032 -50218 2810267 397899 338605 7967463 7257187 
3483.129 -824873 -3040240 -2688233 -2704830 -2922892 -2204591 -1799279 
3486.504 -2174030 -2910879 -1693544 4058148 4822272 -1067085 -3462902 
3489.879 -3614673 -3287566 -2828853 -2579684 -3206631 -3429964 -3600116 
3493.254 -3356716 -3296510 -3497711 -2388932 215931 -611346 -406520 3422989 
3497.112 1276052 -2701471 -3373451 -3377561 -3091697 -2044576 -1578605 
3500.487 -2801167 -1614225 1870139 3483274 4515953 10955635 15326898 7941749 
3504.344 4367023 4231061 398032 -1725129 -2305720 -2751882 -3240704 -3320087 
3508.202 -2617396 1023532 9339136 14530310 5043287 -698622 -828213 227866 
3512.059 -777281 -2346257 -1966806 -2251302 -2753627 -2920588 -3414349 
3515.435 -3651704 -3720073 -3565611 -3098737 -1932633 -2062285 -2393579 
3518.810 97766 953161 -1429687 -2561601 -2878163 -2432196 -2235117 1059967 
3522.667 10170613 15016819 9256979 8023184 4549535 2049573 4834401 3649441 
3526.525 2767249 11477073 12274244 6946486 5620836 11406825 10111666 482046 
3530.382 -67909 3026390 2418225 -915016 -2913282 -3499617 -3494950 -3555884 
3534.240 -3430063 -3428682 -3218405 -760115 8749659 11496703 1966154 
3537.615 -2508631 -3088045 -2970315 -2944778 -2865622 -2661066 -2519700 
3540.990 -3036686 -3231462 -3053203 -981007 2664756 4559915 6152305 6051966 
3544.847 13743969 25885354 13195040 3419716 16600993 25425414 8601131 
3548.223 4039152 3670091 -1019519 -2767323 -1125188 -429526 -1108498 5037689 
3552.080 22073148 19452124 3921614 4345906 6728471 694358 -2408835 -2945996 
3555.938 -3069489 -2633962 163656 1469004 -1284154 -2890045 -2771142 
3559.313 -1512704 5914937 13312656 5825702 679557 484301 3337103 4248828 
3563.170 5656988 14623134 10586729 4356581 7338595 26742178 51574192 
3566.545 64089648 43316612 24907178 53888768 61130860 21813368 2883374 
3569.921 333366 5321199 5609794 -728890 -2773019 -2945074 -2044444 -862804 
3573.778 -38026 2890412 5798503 2662355 -1382492 -2064462 2737639 7704279 
3577.635 3587263 -1492133 -2001834 163490 4426301 8560171 5251436 -917363 
3581.493 -2049622 -2110825 38314 1409131 5532198 6526677 1083850 -1845 
3585.350 3193718 8280854 34434908 69939072 41747304 22501006 32152918 
3588.726 56527068 28833814 4999477 2024639 734350 -1099575 -1806638 -1266545 
3592.583 3951272 24326128 24774242 7491311 3074906 18484856 36397448 
3595.958 23546386 9587968 1989121 185931 7922683 17216226 10947820 6462942 
3599.816 9095995 11227394 21156976 26236626 7206247 2373979 5617446 5781847 
3603.673 468811 -1309294 -1668195 -640826 -184242 1217070 16245665 51097384 
3607.531 39435632 11447135 10816915 36419608 61468472 25088770 6460150 
3610.906 2245533 3143252 13109487 44487236 64263688 30073500 11561862 
3614.281 25129774 43292600 29434688 13083739 3938164 2522959 15767364 
3617.656 51373836 51177972 20356300 25703674 60840352 50062076 19923542 
3621.031 18794446 17134084 4552280 77450 2403731 3730711 869156 -632952 
3624.889 -242099 1443371 10800168 22019464 13641999 9015338 23879138 
3628.264 76029216 96928784 84860200 94608760 50260564 25872238 13751665 
3631.639 4285133 1856030 1596223 5154960 25992704 41956112 15180734 1739180 
3635.497 -403408 -1231392 -1825544 -1150766 1107434 10716648 12384042 
3638.872 2736538 -980114 449374 85570 -1409046 640930 6708718 10823913 
3642.729 11595075 6064969 1138462 -1006462 -173180 3995845 8388364 18550346 
3646.587 45453656 84546088 105608504 51200676 35991176 66723616 98270104 
3649.962 60330840 64676308 96496248 88713992 38856172 10739573 5829296 
3653.337 3559368 959105 547198 1763200 6149045 24052458 66365756 59654072 
3657.195 19496066 4009121 283000 -906617 -868591 1929576 4739391 1524462 
3661.052 -1152980 -1460300 -1331889 -1976833 -2008529 -1981121 -1880313 
3664.427 -1983133 -1577417 -1036378 -305279 -355671 -220805 985705 5551127 
3668.285 24315160 64692684 52408356 31559498 49140780 97265944 76847912 
3671.660 30655682 11228006 5860931 4442904 9233726 29791184 75305488 
3675.035 125343424 124137064 128074360 77425616 37274128 28785132 16740642 
3678.411 6120716 13814870 40550572 36012488 13851095 5558006 896779 -431710 
3682.268 -1093493 -1140621 -1194551 -450081 3634572 7668192 3245992 194284 
3686.125 1092818 3597920 8928644 23589660 58247524 109790744 62132748 
3689.501 28095220 20202848 34427480 63996264 79667872 37367032 10770209 
3692.876 4271982 5326666 5056763 2499631 1081525 48288 -339845 4948969 
3696.733 7212647 1309583 -1792218 -2301402 -1865565 -340574 172771 -1165637 
3700.591 203931 7839781 38825376 59697256 24556000 6366634 18399 -1466013 
3704.448 -1646212 -515647 3679815 4002801 1647839 1061396 698772 1208863 
3708.306 4549702 21126050 61421604 67781640 25315042 22252200 35747332 
3711.681 55361180 105470904 85924912 36360880 10305429 4638207 12809485 
3715.056 17330558 4580474 415510 786329 393820 -1246888 -20897 7650724 
3718.914 31698480 26047692 7192165 581470 29201 3995912 29580230 64707412 
3722.771 49035232 17044924 5714293 6050522 22894812 31296436 17792288 
3726.146 21215876 45937644 33692456 14721598 10461228 2136903 -543512 881075 
3730.004 5252039 8098052 9736089 25523196 62006148 80969984 38254940 
3733.379 17173412 22072380 56516312 108036648 117832128 73499176 51502784 
3736.754 69812080 42523100 20788518 34744128 42491896 18102178 5995591 
3740.129 7689203 19693750 38666232 36439428 14398321 7947384 12943621 
3743.505 36207972 102501360 241524368 203807600 83491768 37829212 23918978 
3746.880 20328730 29204452 29028784 24901350 48407864 107300496 112389552 
3750.255 55840176 38278168 45299752 69171440 123348576 101150400 45042320 
3753.630 26303892 19701830 8184952 4963280 5660513 14565737 40777764 
3757.006 39803196 11539473 5320695 8217436 24109264 48351196 70905336 
3760.381 39153804 9704984 1177265 664723 2792392 3023187 771126 1778071 
3764.238 2023640 4098686 15364655 47924856 43744272 12619719 2323209 560037 
3768.096 1251926 3988087 11683257 37398848 75981728 42495404 12562689 
3771.471 5341660 3316034 -426216 -1940253 -2106604 -1676744 -1885360 
3774.846 -2455425 -2635806 -2564895 -2397532 -2018028 -1025470 2628452 
3778.221 5267098 7892652 31901196 66580988 33282232 5897942 -135553 -8472 
3782.079 945524 -608567 -1809112 -1304636 3880257 20293836 26460008 13577212 
3785.936 4978664 2280905 877855 -842599 -2057965 -2799225 -2272990 -972841 
3789.794 -902154 -2310268 -2636169 -2528957 -2323550 -1990257 -1567149 
3793.169 -1691861 -1566357 -1417203 -1265521 120435 5823923 27969964 
3796.544 60491416 35040460 17943788 17935534 8631042 5512265 6839737 
3799.919 12454517 30183454 61004860 110443832 93495024 49088656 44203020 
3803.295 37068532 12855012 4184489 2684825 3726199 7139347 20607080 54254660 
3807.152 98630976 50273804 17148560 4772890 1417508 -106933 -307630 -679468 
3811.010 -881454 -1146107 -1066126 -863102 -220673 242253 1554555 4004272 
3814.867 10298778 29801438 76082352 111813000 53184540 20307376 8559326 
3818.242 9047241 13748963 12530698 22431708 47418624 82405704 100427160 
3821.617 100073480 72067136 27613332 14252334 11799545 9086893 8700944 
3824.993 4836243 6514871 9765198 25701004 45780104 23663236 10741237 8792192 
3828.850 3260513 372861 -91927 1460692 6354396 27570364 64491792 40240496 
3832.708 10704999 3601596 3415074 10238932 35388504 68905632 36194464 
3836.083 13130764 11120235 26112252 63563964 117722448 63787288 29136806 
3839.458 25236092 47425868 50416940 53384536 46179836 15223216 4177999 
3842.833 6445253 27461776 61268000 37005240 12270802 4547057 555724 457135 
3846.691 1051564 -243457 -705536 -450015 1603572 8105040 19273116 17093792 
3850.548 9178053 13448416 36354252 87294856 89460760 58109820 74769560 
3853.923 149291840 191182672 78894432 35791044 14610250 9615000 23067808 
3857.299 44348684 26729632 5348033 932308 420651 458959 26120 1339695 
3861.156 9831317 38596660 46342124 18060036 10699973 13652564 22371492 
3864.531 45468928 74882968 59820332 24400494 9671949 2755845 1072091 1868608 
3868.389 7311435 28150932 68102304 88585448 87745936 44201372 26717122 
3871.764 17849802 5428615 1351095 7563188 33999792 74854856 62318856 
3875.139 19102698 2613685 12567 -353121 -778009 -1123998 -892862 -802483 
3878.997 963854 10505355 47588992 88931288 61780984 29463302 7394168 1906978 
3882.854 8028247 20646518 14727563 6160942 8065916 28928400 85289592 
3886.229 76598720 22649130 4020123 278988 -537092 -986197 -1100930 -436874 
3890.087 1846879 11134749 41830776 71994928 38945900 15870349 7893495 
3893.462 4371911 8554831 10093760 1951110 -1226172 -1842899 -1499728 
3896.837 -1077926 958640 7702694 15451855 25479096 64094564 60951436 
3900.212 17718424 5027231 12726738 48913136 77902864 35180560 11844216 
3903.588 19172366 56101152 61764824 25713694 19613944 30489768 22982244 
3906.963 3566383 -1878564 -2760179 -2804558 -3228535 -3040075 -2986407 
3910.338 -2558109 -2907950 -3144891 -3340901 -2700911 -2572602 -2477696 
3913.713 -2627112 -2050743 -2621315 -2480497 -474806 10658170 21351972 
3917.089 30161538 31214116 8287541 -1198879 -1500850 4850919 25499654 
3920.464 26845720 5004203 -1592372 -2544735 -2279945 -757733 6735134 
3923.839 12447356 13726049 21642716 30736194 13108804 -659387 -2934937 
3927.214 -2964458 -2169975 -900137 411829 8016703 12689584 7293677 9113759 
3931.072 5804244 3449974 20635468 36212400 16539790 1327331 3709022 4496266 
3934.929 -506248 -2006056 -2655928 -3285757 -3466912 -3138279 -1753378 
3938.304 621850 412061 -1208329 -2365997 -2625893 -1918712 -2176964 -1799312 
3942.162 6689808 31264320 29329746 5562570 1552792 3067932 -486721 -3218405 
3946.019 -3069588 -2569638 3040437 12265996 13420598 8244180 1029510 1993448 
3949.877 15861105 17663032 4045574 -1976503 -2758664 -1880774 784337 3312796 
3953.734 222462 -2747371 -3005427 -2060933 -2203602 -2734299 -177850 1857594 
3957.592 -661769 -1021073 -1038989 -2479509 -1745887 -1257328 -2547404 
3960.967 -2665050 1377985 8089275 4841135 -1860881 -3170811 -2705126 
3964.342 -2534886 -2457006 -2705159 -3351948 -3384300 -3576423 -3291775 
3967.717 -3021386 -2971467 -1415519 2323209 667311 -2666960 -3243663 
3971.093 -3192356 -2494498 142343 1467009 -385168 -1450294 -503137 -779067 
3974.950 -689029 -449452 375016 1004004 -1455083 -3072220 -3441371 -3521080 
3978.807 -3456722 -3313708 -2682273 -2561699 -2745132 -2717737 -2586766 
3982.183 -1255345 -1124362 -2209107 -3080741 -3229456 -3107883 -2788624 
3985.558 -2856208 -3048992 -3263724 -3434336 -3449885 -3437886 -3354414 
3988.933 -3053499 -2449494 -1882589 -265809 848074 -1417170 -3045175 
3992.308 -2964161 -2576621 -3218602 -3540799 -3121765 -779530 1049272 
3995.684 -1622841 -3578033 -3709035 -3526075 -3550823 -3539616 -3633468 
3999.059 -3683278 -3640204 -3491597 -3333766 
##END=
