##TITLE=Tue Oct 07 07:43:05 2003
##JCAMP-DX=5.01  $$ Nicolet v. 521
##DATATYPE=INFRARED SPECTRUM
##ORIGIN=ceam
##OWNER=Nicolet
##LONGDATE=2003/10/07
##TIME=08:47:36
##DATA PROCESSING=
Ratio against background
%Transmittance->Absorbance
Truncated
ElementMultiply or ElementDivide
##XUNITS=1/CM
##YUNITS=ABSORBANCE
##FIRSTX=649.903564
##LASTX=4000.185791
##FIRSTY=-0.005732
##MAXX=4000.185791
##MINX=649.903564
##MAXY=6.000000
##MINY=-1.254424
##XFACTOR=1.000000
##YFACTOR=1.000000E-008
##NPOINTS=6950
##DELTAX=0.482124
##XYDATA=(X++(Y..Y))
649.904 -573238 -667474 -588339 -389812 -639225 -786171 -492391 -559410 
653.760 -744745 -439828 -290363 -559793 -542035 -513183 -803957 -615429 
657.617 -402692 -703380 -597762 -418427 -726068 -680651 -461441 -749233 
661.474 -762271 -442836 -398927 -588696 -476601 -414338 -489397 -309860 
665.331 -221392 -388285 -529281 -438562 -615988 -2063992 -640119 -238751 
669.188 147894 90388 -772327 -709326 -718446 -476267 -332212 -332146 -677307 
673.527 -528177 -350188 -492375 -469502 -314943 -321422 -531179 -402472 
677.384 -258426 -493761 -447460 -317896 -514211 -495677 -304793 -326283 
681.241 -421919 -253459 -263791 -489256 -381231 -353320 -580595 -372368 
685.098 -298693 -618324 -521676 -305405 -302240 -339751 -202920 -133562 
688.955 -252563 -212447 -116180 -200054 -233600 -133895 -227239 -275405 
692.812 -66087 -37781 -106685 56212 67564 -42538 91573 127312 55648 156632 
697.633 275321 281313 198845 262511 270509 201758 216357 232320 171812 
701.972 200270 266975 271333 282710 366497 425535 539442 869107 1258274 
706.311 1631188 1661111 1237405 761953 506142 478126 472183 418786 369281 
710.650 336067 293050 286703 247976 244178 307787 331710 328628 349058 
714.989 338745 303466 300917 277338 247753 262225 268699 257015 231498 
719.328 210643 211259 95302 -95707 -30206 -8281 29387 42201 81202 80893 
724.150 60691 45856 13793 -3020 -59129 -149939 -105951 -34087 -36239 -35262 
728.971 -44359 -43899 -48255 -73080 -92133 -100662 -101462 -81468 -74377 
733.310 -128514 -104556 -60989 -78885 -25799 -21537 -61630 -81038 -74688 
737.649 -38291 -24733 -48602 -65938 -97204 -57696 -44395 -66851 -39678 
741.988 -50869 -61128 -14260 -2205 -30150 -30312 -5 -23388 -51627 -21577 
746.809 20164 5806 12895 50851 77564 77079 116493 176506 209005 211306 
751.630 202227 200965 230435 293981 339437 385224 433248 455593 504087 
755.969 590140 644942 606167 616705 658746 661424 677471 768529 801579 
760.308 820642 855304 852732 834462 911873 1001129 1043309 1044890 1113491 
764.647 1246952 1387374 1563025 1978178 2693490 3284773 2923556 2144174 
768.504 1621766 1314579 1124517 1010983 997809 1002485 967703 928047 920837 
772.843 972917 1033664 1096365 1166235 1275147 1463625 1735662 1844122 
776.700 1562459 1170347 945408 797279 728340 680813 613523 557149 514111 
781.039 507761 511640 470499 406433 397942 385906 352025 328181 296847 
785.378 252639 228267 241326 240326 201774 154670 106876 110776 108869 
789.717 105890 86062 45415 32497 39040 9988 -13525 -21643 -19056 -10186 
794.539 -8685 17602 8222 -8891 -38728 -56032 -55919 -36093 -14959 -2633 
799.360 -33395 -50757 -48827 -24713 7122 24318 26483 25571 -2980 -21371 9024 
804.663 34769 34105 41421 53130 79964 102187 114915 105953 108268 111391 
809.484 113653 126575 118258 105036 102502 76236 94804 122311 136449 155132 
814.305 172653 163939 152037 133361 126621 124438 129612 149380 156958 
818.644 139746 146168 149792 157284 147475 152409 147911 127216 110597 88821 
823.466 60944 54855 44174 37806 29536 29672 46420 29576 83 20515 30680 36845 
829.251 11221 -5744 7344 -4233 -6370 -10103 -27140 -18487 -26395 -25438 
834.072 -16367 -5353 -9861 -7251 -12127 -6900 -13969 -13277 -17622 -32193 
838.893 -18311 -3719 -20047 -21924 -25193 -12127 -21703 -27885 -16122 -15456 
843.714 -13340 -14529 -32286 -29504 -29792 -27392 -35060 -28898 -20235 
848.054 -30286 -27180 -27114 -40294 -17811 -11889 -12677 -19434 -29359 
852.393 -30630 -22782 -45812 -37238 -21199 -19007 -22974 -27455 -42317 
856.732 -39970 -39629 -33958 -28266 -10859 -10832 -22222 -4667 1395 -26239 
861.553 -30786 -14648 -5190 -13810 -14022 -20245 -20577 -15218 -7162 -5376 
866.374 20959 27590 35170 33170 33588 33953 81617 119135 111142 63651 45554 
871.677 25548 12292 23111 30242 17727 29009 38775 38612 31957 39322 47988 
876.981 49654 37859 39133 50529 68888 67345 67905 61634 46512 49571 70663 
882.284 65340 70962 74195 71649 78994 94608 81949 66624 74905 120198 113244 
887.587 121308 125292 127641 136282 144397 156353 199557 195081 192877 
891.926 199810 212175 231744 260485 299629 323354 321521 349493 361536 
896.265 369177 365268 371223 381363 370771 355712 370474 358632 356655 
900.604 355723 370033 371306 383853 367994 351687 357306 369308 346887 
904.943 363931 376012 362157 302552 307160 326552 310921 277105 264978 
909.282 249819 225655 198489 211582 204165 183273 139257 124946 102001 87758 
914.104 66070 37485 28419 59006 38751 40237 23207 24318 6962 6943 10456 
919.407 40363 52928 86264 100387 152386 213107 290388 327216 407199 502562 
924.228 621807 704777 799793 887889 1000247 1092933 1199712 1247088 1327312 
928.567 1444117 1455867 1349965 1762534 1964549 1358216 1101500 1183934 
932.424 1231736 1262446 1195213 1113400 1005316 1005862 1060754 1223685 
936.281 1445107 1801254 2203846 2780390 3485372 4403038 5314832 6482430 
940.138 7993640 9801703 11643162 13823406 16211027 18720094 20956196 
943.513 23510634 25833338 27977764 29399490 31728688 31937036 32262650 
946.887 34316928 38560896 41298412 27936602 21798142 22600180 23088084 
950.262 21183074 17197036 11538142 6203333 2715607 1139107 513175 328064 
954.119 215235 186431 126781 106777 48506 39995 1250 93 -21484 -28279 -41780 
959.422 -26431 -45623 -39447 -63751 -62795 -84058 -75237 -77364 -62696 
963.762 -68926 -63255 -88386 -88919 -81816 -64049 -92420 -80625 -66262 
968.101 -58394 -68651 -52832 -60135 -52898 -61144 -51131 -46884 -44809 
972.440 -50538 -25888 -14833 -4581 -4584 9929 21821 39342 45017 62277 75818 
977.743 110796 114015 131117 139919 161760 167863 179703 192248 200183 
982.082 202969 236768 258538 287850 287476 297040 303853 300116 275701 
986.421 276901 264402 244631 230855 237138 233433 245427 252592 265265 
990.760 289524 319675 275050 252742 248683 231994 212931 203399 184644 
995.099 182807 148466 128236 117234 100878 75134 57878 44887 38917 12935 
999.920 1349 -16592 -21050 -35302 -49026 -46203 -41737 -59986 -55168 -63953 
1004.741 -77433 -85767 -86786 -93283 -91947 -98517 -99680 -106420 -98348 
1009.081 -89058 -88945 -98441 -90929 -95551 -102292 -108480 -100335 -100176 
1013.420 -100361 -93921 -81366 -86945 -99965 -99727 -83125 -78191 -70477 
1017.759 -72118 -68459 -68423 -68443 -66375 -53358 -49737 -24272 -15658 
1022.098 -16009 -6264 5369 -2550 -10113 -15181 -8752 -2298 4716 -2099 2512 
1027.401 11085 14449 19445 25561 15725 24659 36742 41338 47249 43395 48350 
1032.705 66299 56073 52430 39524 39916 57994 54407 50626 71098 78875 87473 
1038.009 95229 98211 86799 88197 101071 113673 108850 109149 106179 112138 
1042.831 117251 122401 137589 166247 173655 178502 171276 181826 203123 
1047.171 211506 220093 244867 251299 256805 275087 310347 336551 354520 
1051.510 370945 408942 468432 530811 556696 570197 600435 657437 722043 
1055.850 778324 825694 874671 917070 963986 1010084 1058883 1100538 1146275 
1060.189 1187952 1216573 1246195 1288791 1323189 1365779 1416883 1444421 
1064.047 1416523 1402908 1429030 1465298 1473092 1480452 1473229 1479571 
1067.904 1479488 1461209 1443370 1440780 1428650 1398962 1361030 1337149 
1071.762 1302227 1261712 1224718 1184581 1136277 1099056 1048814 1004682 
1075.619 961384 919903 871368 814011 758921 709650 678649 645900 605798 
1079.959 583624 565423 547069 540818 536832 532119 539147 545998 565460 
1084.298 584729 611201 636666 659334 681143 704231 726591 748187 770451 
1088.638 795379 807256 808090 815007 829095 841832 853867 835526 808478 
1092.978 794340 799024 795450 799250 809653 813893 806568 795177 785347 
1097.317 787541 780584 777389 762765 735180 702948 684118 662470 625209 
1101.657 577771 530781 474274 427007 389486 345414 301160 270869 235302 
1105.996 206745 178143 144619 116367 95535 73607 56680 46240 33495 16166 
1110.818 -264 -12429 -21934 -34736 -28759 -31024 -44210 -54443 -56095 -50624 
1115.640 -50317 -53484 -57726 -59966 -60777 -63642 -63377 -62074 -71582 
1119.979 -74681 -70791 -71949 -77953 -86412 -80092 -71086 -63844 -61508 
1124.319 -67926 -64423 -58897 -62633 -53705 -51061 -49661 -61832 -66540 
1128.659 -55069 -48529 -48410 -46140 -47550 -41602 -43862 -43409 -33471 
1132.998 -29027 -26243 -20169 -15741 -15807 -8622 -2795 -7082 -14356 -16523 
1137.820 -5873 5889 22189 34092 38231 52178 74988 87878 108680 133999 155345 
1143.124 181972 222138 264688 299522 335717 369284 412574 469799 518225 
1147.464 567615 618974 672029 722470 758459 775490 802710 840991 878634 
1151.803 909477 957672 1013228 1053852 1065287 1052596 1041527 1031160 
1155.661 1015853 1023876 1033976 1055003 1102924 1137760 1133454 1137716 
1159.518 1193214 1237112 1215080 1191783 1188579 1175491 1163383 1149874 
1163.375 1117200 1089284 1060682 1037112 1007270 967913 917175 881731 856895 
1167.715 823151 787395 778023 756237 740245 745807 748986 746036 746586 
1172.055 739137 736815 722262 707148 714167 720479 689763 661871 646206 
1176.394 627727 605687 590533 565675 532733 508482 491297 476639 472662 
1180.734 451729 432970 407450 400066 405697 399561 386167 378849 357500 
1185.073 344032 331903 308525 304127 289951 254099 224356 203435 181004 
1189.413 171127 168296 133956 119055 115975 114533 99274 82941 54271 54892 
1194.235 66658 74865 67142 75801 93689 103064 119676 145218 179261 205103 
1199.057 219890 257831 289258 316704 352910 391145 416652 457401 533092 
1203.396 592649 637799 661380 691032 744880 800043 838900 860552 880023 
1207.736 907410 933944 956794 983023 1010681 1022824 1038832 1060781 1072687 
1212.075 1091921 1092440 1073631 1054167 1048352 1042874 1030488 1016566 
1215.933 1009765 999043 992602 987307 972179 945310 909271 869232 830557 
1220.272 800344 762755 717576 671349 619646 567128 513189 479178 429687 
1224.612 395889 378184 326224 278749 243121 205593 175445 152941 137010 
1228.952 129336 113723 98975 79486 71520 69784 63548 56703 54245 54364 43023 
1234.256 38851 42983 44267 47070 35923 33147 48413 61382 68197 73444 71725 
1239.560 68337 75370 84601 88964 106169 114972 124876 147635 152775 170199 
1244.381 185380 187356 177823 177570 180591 187516 231897 232710 224536 
1248.721 274524 307393 316367 318594 338722 373539 410336 432703 469849 
1253.061 511891 529896 535954 584659 614917 645241 683825 720496 746131 
1257.400 778206 813545 872548 937719 999443 1069433 1178585 1174395 1166722 
1261.740 1220226 1265911 1333548 1403842 1489130 1592403 1690958 1799807 
1265.597 1899240 2023148 2158846 2280208 2364850 2446162 2567316 2676962 
1269.455 2801636 2965468 3055140 3111700 3269852 3409511 3403974 3416615 
1273.312 3458098 3488162 3499775 3494097 3425596 3363345 3321445 3271913 
1277.169 3232967 3253147 3324546 3426212 3502224 3480371 3335918 3184250 
1281.027 3096201 3069543 3051191 3040927 2996435 2897635 2834410 2777716 
1284.884 2656954 2538100 2381035 2227099 2087257 1996579 1820886 1638375 
1288.742 1467303 1315477 1223406 1188831 1134689 1061154 1016556 993768 
1292.599 958112 927701 926544 925261 913111 922746 923247 945401 1001851 
1296.939 1019758 998619 994877 1021983 1054069 1069793 1047344 1041381 
1300.796 1090048 1129067 1079541 1054211 1095274 1104708 1042813 1032755 
1304.654 1028703 1011186 989527 842863 921013 974672 985443 1025955 1007558 
1308.993 974083 964786 958715 975452 983450 949228 978908 1097184 1041411 
1313.333 958149 872213 806433 804353 681351 589522 580400 647585 592152 
1317.672 465568 456785 658729 658988 445562 397832 319759 278615 236901 
1322.012 168808 114274 150816 141474 131736 116171 119205 108600 117228 
1326.352 128299 129206 -15165 8679 43876 41647 46406 69897 75857 73733 59494 
1331.656 88828 90039 -22570 -63100 -3865 8832 28863 38470 77036 160011 
1336.477 445150 394254 74344 188348 561157 631142 503282 602256 877937 
1340.817 517088 147964 16554 -13167 -47778 -72898 -26292 -23911 -35146 
1345.156 -37123 -2546 11045 -13121 -47136 -38649 -61306 -28521 79585 116540 
1349.978 13061 -15423 -30239 -39155 -27077 -9027 -24753 -85605 -56416 77371 
1354.800 232514 118440 -48182 -48589 -42005 -28034 12510 30090 -19987 -8659 
1359.622 -11733 -8430 292737 687750 288460 210257 722460 1427750 926168 
1363.961 196545 17323 -26746 -8695 -11650 -45782 -38520 -16940 56116 386133 
1368.783 471269 129838 25538 -9312 -26922 -33461 17436 48085 86713 406423 
1373.605 1203848 915304 598574 899497 454022 80890 45133 36155 118836 265518 
1378.427 161231 75024 154291 151930 89930 49498 45312 62191 89674 91557 
1383.249 95621 99028 99759 82798 81388 135973 390392 616316 1113407 1552101 
1388.070 629256 189250 104698 105797 116384 150807 152409 115002 86630 94114 
1392.892 118859 221865 760557 1911931 1345057 874364 1139719 592148 194385 
1397.232 366761 678554 491599 959816 1950168 995080 251206 111358 69741 
1401.571 47514 22471 23595 55605 71184 115965 645073 1372974 662483 108052 
1406.393 37160 11105 4895 18593 17956 -1284 11592 67534 25256 -16523 103844 
1411.697 214582 155921 47000 14171 10446 33505 40973 51810 163962 370354 
1416.519 298942 687423 1103553 584769 939984 2829236 4030836 1454843 420248 
1420.858 134311 87596 83632 80139 128027 586600 1393166 1084888 321564 
1425.198 111504 98009 89734 45826 32338 83114 186957 194658 280323 998182 
1430.020 1496496 567149 143459 135136 231498 236185 398183 442908 238037 
1434.359 190182 255272 516200 1078111 2601163 4605592 1862348 649815 305254 
1438.699 256918 243161 246194 240979 240766 221978 227980 249146 289171 
1443.039 286909 280476 284611 324262 369986 410671 453520 500960 564255 
1447.378 1122668 2119409 1416780 614427 496914 486874 531016 534109 623427 
1451.718 981867 1139505 726399 657999 675960 864490 1230137 1856358 1893957 
1456.057 2390241 4892092 4930588 2860492 3125103 3087043 2609603 2240418 
1459.915 1386813 1179879 1202410 1277549 1329232 1417146 1477935 1590502 
1463.772 1837464 2621022 4298875 3782093 2475530 2118188 2076005 2097524 
1467.630 2106093 2130116 2166883 2204125 2278299 2366425 2474211 2927366 
1471.487 4240088 5747870 4439859 4117787 5030200 3893227 2899035 2622156 
1475.344 2757968 3832724 4870525 3274264 2458219 2304712 2214918 2135841 
1479.202 2078952 1998348 1981029 2109916 2466600 2173878 1711509 1538260 
1483.059 1464756 1399314 1337395 1252340 1226896 1220717 1378969 1528289 
1486.917 2226186 2908468 1746747 1249369 1751497 2585598 2951454 2691371 
1490.774 2858740 1796512 956540 737954 689736 650266 640698 678124 754295 
1495.114 933219 1714401 3387636 2593501 1216164 823992 1055692 2294776 
1498.971 2706180 1239802 734021 651298 622802 812928 996687 753250 618453 
1503.311 619878 677915 867734 1589516 3341414 4854019 4275440 5733220 
1507.168 5808807 3350423 2865185 2618597 1690610 1944131 1630555 917246 
1511.026 577325 714928 1707121 1886306 756720 381761 397497 809687 1491746 
1515.365 1226875 1163234 2264176 3232778 3785882 2553482 979691 559569 
1519.223 695109 1552197 2921731 3307730 4317419 3085303 2527033 3245398 
1523.080 2018292 960375 701143 1045223 2179595 2889603 1402258 700069 
1526.938 1222233 1579694 1098302 1455117 1134294 380196 207161 182604 294715 
1531.277 753395 1001471 652045 1337935 2927579 3692608 2228373 825120 558811 
1535.617 553652 359528 374621 430437 685185 1647532 3492567 5406957 4649609 
1539.956 4728076 3940592 2018167 2126031 3988719 3248526 1753308 1740711 
1543.814 1288910 995409 1976545 2711621 1248179 431381 243305 238963 274724 
1548.153 264248 259581 653495 1609836 2083613 1117394 334124 204664 264972 
1552.493 314749 402982 869330 2244531 3262718 1587127 818346 650996 752819 
1556.833 1483078 3543084 5892677 6547509 5346671 4614737 6694501 6557122 
1560.690 2546237 1196630 649041 445318 398343 437247 464544 687232 1611446 
1565.030 1972439 934634 568884 488288 458030 453182 561872 1052025 2231030 
1569.369 3370309 3590205 1689590 808151 593334 582701 579853 627216 640920 
1573.709 696719 766239 960368 1559484 3010446 5261383 3402147 1935549 
1577.566 1358992 1039542 874992 822307 812553 839616 849083 870195 907356 
1581.906 928074 974872 1012357 1033491 1047100 1079252 1139587 1176362 
1585.763 1176437 1195111 1208297 1244077 1320661 1339592 1346864 1405906 
1589.621 1505485 1534824 1482649 1500131 1600780 1592372 1520224 1508576 
1593.478 1512528 1683783 1952607 1789865 1584711 1655132 1670886 1509136 
1597.335 1434807 1425531 1404444 1373754 1328375 1302675 1264943 1333793 
1601.193 1426517 1322527 1236812 1355434 1508278 1355044 1120131 1038486 
1605.050 989897 972809 961130 1044911 1224670 1100038 790614 730665 960744 
1609.390 1336640 1026366 699817 629461 642578 644915 655281 632373 603288 
1613.729 566256 567843 591211 739457 1203565 2485514 4708969 3082379 1480489 
1618.069 800208 574091 472210 444903 420984 428322 446697 458278 594359 
1622.409 1057722 1743250 2989982 2383734 924783 487373 375420 321458 247230 
1626.748 289985 816962 1960434 1345121 462903 279792 239157 223164 201931 
1631.088 163486 169892 192405 215977 238170 326428 553558 1545031 4105923 
1635.427 6317823 3263597 1410738 1079368 1897754 1456779 477694 162881 79993 
1639.767 142219 314972 233443 145331 164201 297440 251422 142249 150953 
1644.107 209944 320206 836819 2198834 3482740 1883004 1876780 2597494 
1647.964 2514820 2011912 776016 325183 295856 357580 520294 1038625 2338057 
1652.304 5415439 8950083 6932327 3875602 3818626 2751656 1027123 378325 
1656.161 235568 177071 158608 91789 55837 56252 60350 23084 35124 77776 
1660.983 270129 437562 660482 1818350 2576576 987609 264095 84724 43879 
1665.323 15367 10823 9882 57977 127714 426542 1117374 1845785 3381157 
1669.662 2425341 791890 509531 1373172 1998977 823810 305782 166500 143034 
1674.002 259415 916021 2845419 4055912 1357184 341360 114553 92646 110235 
1678.341 106010 96697 367366 955714 1336715 917832 351858 271696 494890 
1682.681 1361984 3146333 4008007 4928974 5925496 3755792 1556809 557478 
1686.538 179806 78954 220077 768603 1056079 494162 405610 965497 853844 
1690.878 145650 -14747 -13571 41249 47979 140760 210493 367948 915646 
1695.218 2728233 6093485 3455726 1554631 1202237 1173305 670003 674297 
1699.075 1457899 3508148 8096036 9592073 4248393 1539750 489672 333763 
1702.932 317032 296510 878651 2053978 1293676 555518 1167131 2378760 1461652 
1707.272 597079 185413 11321 11917 112341 442630 863895 498999 162223 135784 
1712.094 136591 241995 345842 753392 1468883 1531045 2251022 1894006 900948 
1716.433 952158 2040467 3737302 2816305 3173505 2880888 1018299 313110 
1720.291 168625 132311 171280 177813 166683 229699 577456 639514 178602 
1724.630 -16688 -23488 -9931 6525 41060 57324 63266 34384 34384 117294 
1729.452 675734 1701856 1128231 280639 174337 384081 617031 1261327 2732181 
1733.792 3026721 3772189 3476918 1291105 448491 216703 128133 206991 309299 
1738.131 197484 236685 850884 2364710 2338064 732909 184568 35780 47793 
1742.471 354199 1140624 1354630 748864 427603 319862 270619 423788 425729 
1746.811 843910 1094435 822604 1249325 1930917 1401501 713567 386752 1227083 
1751.150 2890201 1770382 446858 218042 106186 19696 -15552 -17831 -16877 
1755.490 23240 220480 1122783 1586416 508944 94462 161441 115214 5143 48705 
1760.312 105598 286689 1068727 2355362 1303395 261875 26201 -25799 -20345 
1764.651 -32087 -33103 -38003 -21040 5740 85753 535477 1679061 1160341 
1768.991 211665 55230 118670 446322 1440054 2071702 1449766 2248607 2705101 
1773.330 1054436 307560 85826 104003 593109 859153 262478 -605 -43528 -32246 
1778.152 37495 109487 144174 85398 411945 1205684 824306 181237 55920 -37573 
1782.974 -59159 -63910 -10315 320706 866409 388035 -12402 -44826 -46279 
1787.313 -50373 -16854 1432 24440 20326 56189 247453 1030234 1163683 605062 
1792.135 1290003 2759536 1499527 392693 89047 36387 110517 352923 605754 
1796.475 364539 100098 27268 12126 41265 296750 1234565 1275584 344770 
1800.814 260415 529081 400544 611244 537923 24633 -59900 -50528 5412 31506 
1805.636 5428 -35815 -12690 53575 294865 221955 45743 -6254 -926 242358 
1810.458 971074 793564 180289 181460 236341 47574 -46444 -62984 -62984 
1814.798 -68237 -64552 -74595 -79312 -65114 114102 138393 -23984 -67255 
1819.137 -29782 -49443 -72495 -75836 -78574 -90625 -53034 51797 70388 -34719 
1823.959 -3958 261268 1319596 1609620 434429 32275 -24309 -53636 -46961 
1828.299 79034 635274 1197682 1596229 1871847 633775 60078 -41933 -38659 
1832.638 -46070 53041 33462 -35630 -64003 -78657 -89031 -70169 8613 309252 
1837.460 288467 21848 -62769 -67698 -68697 -67659 -67649 -78991 -65498 95465 
1842.282 166323 88525 315676 1285596 2845323 1460401 420422 176616 23665 
1846.621 -42846 62367 443272 379922 31924 -51776 -83304 -93703 -87887 -79871 
1851.443 -92840 -91643 -77480 -73358 -82150 -98864 -116633 -127434 -137809 
1855.783 -119990 -112039 -83552 -75571 -74083 -5932 7559 -69614 -79292 
1860.122 -91379 -95855 -73004 -47649 -86548 -120403 -115688 -92999 -83906 
1864.462 -86624 -81286 -42158 170661 416314 217103 386257 959271 667671 
1868.802 787028 1629341 853404 145939 95641 23983 -64082 -95446 -113883 
1873.141 -106668 -97925 -100014 -100646 -97403 -109114 -107726 -98890 
1876.999 -115995 -123453 -100249 -87616 -88026 -78528 -103862 -132766 
1880.856 -128488 -127582 -110975 -92857 -82460 -83112 -74834 9912 49577 
1885.196 -19119 -54682 -78502 -89210 -86273 -65922 -57183 16726 484485 
1889.535 1160790 591661 34182 -62216 -67996 -40906 -42383 -40181 -24650 
1893.875 -14144 15460 293517 438489 118999 -18540 -39807 -39086 -49330 
1898.214 -54874 -54122 -37679 -39079 -45359 -57428 -57392 -52974 -42694 
1902.554 -58027 -41784 -24898 2635 4865 -27557 -45378 -49691 -64572 -55903 
1907.376 20021 184857 103060 -34749 35256 333276 289881 -5495 -69508 -80658 
1912.198 -94758 -116702 -110820 -107581 -96265 -95155 -93978 -93181 -73448 
1916.537 -62514 6492 488670 1242495 601998 24656 -60297 -80374 -86492 -81968 
1921.359 -74910 60376 294091 508455 545324 120876 -81293 -102940 -117079 
1925.698 -128600 -129178 -112353 -98847 -106037 -107928 -120641 -134331 
1929.556 -131500 -112525 -101181 -105594 -106662 -114233 -121543 -85877 
1933.413 -78538 -104146 -114052 -122091 -123433 -117270 -112023 -105680 
1937.271 -111477 -112482 -106387 -105492 -102206 -99224 -102484 -98755 
1941.128 -77503 18304 467253 1035917 473704 -20967 -85824 -81577 -9477 34241 
1945.950 16703 18238 -64919 -102170 -96021 -101323 -102692 -107845 -122029 
1950.290 -114273 -100692 -100444 -113635 -133215 -131157 -117046 -122101 
1954.147 -111914 -57779 -22742 -77086 -102223 -106668 -111748 -108076 
1958.004 -110737 -116375 -119127 -125224 -124999 -115456 -82900 -69690 
1961.862 -106622 -125379 -125019 -125184 -130909 -128286 -129092 -116220 
1965.719 -54927 41454 39110 237624 280786 -23345 -120595 -124384 -115820 
1970.059 -122742 -118767 -114914 -111094 -132957 -130546 -124797 -129241 
1973.916 -137278 -129231 -129105 -132792 -129267 -116421 -125772 -125633 
1977.774 -127847 -137578 -142407 -132343 -128114 -119623 -118252 -119620 
1981.631 -135160 -135867 -136207 -132792 -129545 -124576 -137397 -138179 
1985.489 -131662 -124239 -132587 -125101 -116692 -35845 67530 -22613 -124533 
1989.828 -134113 -135207 -120975 29702 422252 370982 70965 -52822 -115235 
1994.168 -128425 -120244 -118252 -123301 -127761 -120281 -117898 -125663 
1998.025 -118467 -92847 -81303 -109422 -125389 -124563 -123393 -122957 
2001.883 -126598 -137859 -142856 -138113 -135544 -135511 -132505 -125425 
2005.740 -121437 -129036 -137093 -124348 -102986 -106047 -113893 -116464 
2009.597 -122230 -127341 -134179 -138371 -135699 -132326 -123149 -122181 
2013.455 -134275 -125808 -114802 -119706 -125716 -109322 22776 177424 18211 
2017.794 -86568 -43796 -46322 -85218 -117687 -131064 -125121 -125220 -126994 
2022.134 -128233 -111150 -105954 -114594 -119973 -131213 -137767 -134553 
2025.991 -125828 -110056 -102051 -116348 -131028 -126515 -124322 -120403 
2029.849 -121358 -124900 -127054 -126185 -130321 -127487 -120221 -119428 
2033.706 -124140 -121933 -120809 -121920 -123433 -117353 -118014 -122333 
2037.564 -127176 -128233 -128679 -125293 -131395 -130688 -118622 -36686 
2041.421 17840 -65048 -126238 -132838 -112442 -93802 -105161 -118962 -133753 
2045.761 -140197 -126211 -119035 -125191 -136231 -140782 -133856 -127331 
2049.618 -124705 -128349 -133112 -128405 -118252 -120218 -122085 -122062 
2053.476 -137664 -136868 -127909 -123423 -127827 -129766 -135937 -138480 
2057.333 -128220 -127021 -134995 -132987 -127288 -131573 -118265 -111087 
2061.190 -134672 -144048 -135719 -125765 -131002 -135441 -113328 -22358 
2065.048 12182 -53173 -78594 -101902 -112102 -127774 -135131 -128689 -131712 
2069.387 -139068 -125118 -133278 -146720 -145868 -135583 -132812 -120258 
2073.245 -119220 -113411 -105231 -120149 -137691 -135335 -134150 -135563 
2077.102 -141700 -141376 -137813 -132138 -136313 -136736 -132359 -129545 
2080.960 -138635 -130572 -123750 -132984 -135600 -133829 -138345 -137813 
2084.817 -133955 -128762 -129178 -135857 -139507 -119217 -122494 -139372 
2088.675 -140085 -136032 -111167 -66858 -93806 -128825 -134754 -132818 
2092.532 -124678 -127384 -138011 -138536 -120056 -133040 -152333 -145095 
2096.389 -145112 -146317 -145967 -144593 -143133 -132987 -145838 -147000 
2100.247 -133449 -132095 -146188 -148863 -144573 -127130 -129736 -152386 
2104.104 -142661 -130120 -136303 -141139 -142086 -133225 -119983 -135382 
2107.962 -157071 -143840 -134298 -138391 -143873 -143490 -136891 -125303 
2111.819 -139725 -142965 -141400 -146241 -144709 -144124 -129826 -109636 
2115.677 -130004 -150461 -143701 -137657 -133221 -140481 -140726 -130159 
2119.534 -130470 -153651 -148130 -142701 -141033 -149847 -150431 -137737 
2123.391 -126770 -148780 -145359 -134110 -139140 -140115 -144260 -140620 
2127.249 -128022 -145874 -155285 -138483 -139676 -141845 -146683 -142397 
2131.106 -129046 -140987 -146185 -137763 -141122 -144758 -141010 -140937 
2134.964 -139249 -133284 -126396 -123036 -133360 -132029 -139781 -147800 
2138.821 -147862 -131269 -137819 -150864 -156117 -154496 -160263 -158781 
2142.678 -152049 -142116 -137529 -138480 -150256 -156368 -163172 -160036 
2146.536 -151197 -138335 -141637 -150775 -159633 -164700 -160844 -144940 
2150.393 -134592 -143487 -156312 -154552 -165786 -170387 -163697 -145947 
2154.251 -133681 -142764 -159299 -147994 -153773 -158431 -157916 -138288 
2158.108 -128260 -141819 -155031 -155146 -158570 -151458 -149167 -118440 
2161.966 -127843 -167195 -159689 -156497 -159257 -158236 -141921 -126614 
2165.823 -160148 -170397 -158613 -151818 -155404 -141674 -120816 -143966 
2169.680 -183524 -169242 -152875 -148820 -151554 -130011 -127949 -177076 
2173.538 -182158 -166664 -159356 -159016 -147000 -137370 -179317 -183395 
2177.395 -163710 -152426 -158497 -143711 -131633 -170681 -210129 -179607 
2181.253 -170179 -176400 -168499 -146231 -169885 -210324 -190159 -171899 
2185.110 -183544 -168628 -160712 -172232 -216704 -209931 -195235 -188747 
2188.968 -185880 -187556 -183603 -220175 -206759 -218345 -204662 -185335 
2192.825 -190581 -196390 -224810 -220587 -241397 -211438 -208398 -200925 
2196.682 -238744 -245236 -241516 -241881 -246926 -235630 -214673 -252991 
2200.540 -266472 -270120 -253590 -271042 -255741 -263488 -262803 -292387 
2204.397 -275323 -292868 -279504 -289837 -282931 -307113 -292842 -302615 
2208.255 -286114 -296867 -295310 -315054 -297442 -296136 -294043 -295376 
2212.112 -287915 -299637 -299588 -305922 -303958 -296317 -279757 -298568 
2215.969 -300213 -292878 -294007 -302388 -285400 -266442 -271510 -285933 
2219.827 -282980 -267532 -262490 -255119 -240043 -233880 -237291 -221256 
2223.684 -209028 -211221 -216397 -222292 -230604 -240264 -260751 -264670 
2227.542 -257411 -265582 -287961 -284873 -276515 -284425 -310794 -304991 
2231.399 -304280 -314443 -337897 -317084 -321064 -342549 -359814 -324826 
2235.257 -342145 -367562 -376675 -326536 -347003 -380226 -375591 -332840 
2239.114 -344301 -369057 -365679 -345780 -353725 -377982 -382390 -333199 
2242.971 -315518 -342549 -371465 -310081 -314752 -323304 -376497 -332495 
2246.829 -305794 -283546 -371813 -348485 -295899 -271915 -376474 -364322 
2250.686 -288510 -235990 -361983 -390817 -280676 -226722 -367618 -406556 
2254.544 -272863 -216127 -346063 -420035 -262335 -204635 -379897 -454920 
2258.401 -277831 -223337 -397239 -475975 -297804 -209674 -431234 -514211 
2262.259 -274365 -208589 -539809 -491677 -228894 -308600 -620290 -437857 
2266.116 -243905 -434695 -615171 -372716 -247624 -545608 -563581 -312558 
2269.973 -304290 -661238 -475248 -269011 -486108 -664074 -382288 -315673 
2273.831 -630098 -524842 -295616 -449811 -642542 -415077 -357366 -623739 
2277.688 -531945 -390134 -541089 -588620 -401468 -511447 -596965 -426877 
2281.546 -411729 -508991 -460730 -374490 -341477 -334612 -454045 -469886 
2285.403 -385756 -542126 -462353 -421502 -761695 -637337 -450595 -601377 
2289.260 -899502 -590229 -691684 -698975 -510082 -1005458 -934533 -626861 
2293.118 -773385 -1111621 -1154383 -1147400 -690497 -614871 -1585882 
2296.493 -1237350 -829401 -1028500 -1066291 -1446362 -975704 -711321 
2299.868 -1198506 -1928873 -2110865 -1492490 -1278448 -1697432 -2180372 
2303.244 -1551115 -1577876 -1272438 -1789863 -2426410 -2205833 -2087541 
2306.619 -2610599 -6957421 -4123827 -2874982 -4162888 -24552346 -7610583 
2309.994 -3278222 -5029811 -29598590 -12320196 -5570935 -5766625 -22889472 
2313.369 -19166108 -7518790 -7256772 -22455984 -28280270 -18704732 -11907654 
2316.745 -17940154 -41536452 -83041080 -16639784 -23774326 -58712824 
2319.638 -88454384 -23136436 -42420180 -63968796 -67664128 -23269748 
2322.531 -64911240 -42466432 -48410092 -30184788 -124761560 -45975380 
2325.424 -80993792 -33804424 -74138144 -33262032 -77330552 -24162168 
2328.317 -47737648 -31304274 -50466244 -21193158 -51704324 -27019454 
2331.210 -41326732 -21967190 -57419880 -14987175 -39084716 -26492840 
2334.103 -49095368 -9591290 -26528338 -22027144 -44176520 -52153 -16740251 
2337.478 -22908742 -18608000 1151130 -125442408 -21628628 -17520448 964488 
2340.854 5151692 422718 600000000 8055325 51490128 -9541520 -11979784 
2344.229 15693462 -12940605 6474764 -7669982 6000023 22653678 -2884145 
2347.604 27060806 16872 -1781986 -408007 2362873 5410842 9120511 7721799 
2351.461 600000000 26965686 600000000 25887442 600000000 44354804 600000000 
2354.837 48761876 600000000 43906704 600000000 54837884 600000000 62268092 
2358.212 600000000 62403088 600000000 63480800 600000000 61993848 197040224 
2361.587 52913336 168967712 59497076 144224368 54506172 79332032 44635700 
2364.962 86470448 52213424 98400528 48110852 106517152 52592260 88002272 
2368.338 48061816 103612056 47453644 98592256 52975048 132988848 45599872 
2371.713 120987752 52388936 113632616 42701100 150986176 45191148 97319296 
2375.088 31114542 46365656 21600514 21687364 12082934 10233798 6264679 
2378.463 4562627 3298073 2376832 1714414 1275348 910012 660101 503460 389560 
2382.803 277928 202833 187133 174596 147751 136718 125647 120009 105880 
2387.143 103744 106664 109627 116091 113351 112278 116527 115979 119274 
2391.482 127439 129177 128954 123993 111846 109092 113401 109374 103389 
2395.822 97491 100071 103465 100294 99045 97720 89814 86669 82865 84027 
2400.644 76130 74795 76402 75240 70667 65181 56547 53840 53077 53114 51717 
2405.948 50483 45919 39352 33840 29198 19368 15003 13094 11152 5789 2999 
2411.251 -3272 -11660 -12935 -16738 -28789 -41737 -44236 -46222 -49056 
2415.591 -48063 -49066 -52200 -58199 -66987 -64095 -58193 -58553 -65746 
2419.931 -63808 -53732 -57501 -66951 -66868 -65773 -69203 -61389 -51852 
2424.270 -53864 -59639 -58543 -61237 -62061 -63741 -60737 -61273 -60426 
2428.610 -56343 -50608 -57134 -62451 -66408 -71370 -65832 -58682 -59744 
2432.949 -72978 -78508 -69571 -75439 -79256 -77599 -78283 -80975 -82801 
2437.289 -80476 -75072 -75799 -80678 -78568 -80641 -86687 -86667 -86339 
2441.629 -94798 -99803 -93419 -85549 -91627 -97085 -106259 -106956 -104074 
2445.968 -108212 -115122 -122660 -125911 -124609 -121900 -119365 -117898 
2449.826 -123760 -128094 -127972 -137159 -144098 -133314 -127625 -128679 
2453.683 -126439 -127295 -124265 -119124 -124120 -128930 -129964 -123641 
2457.541 -121477 -121586 -124219 -120515 -120915 -119111 -113566 -112964 
2461.398 -109395 -106259 -109002 -114200 -110929 -103697 -105707 -103237 
2465.255 -95578 -92804 -101079 -107478 -96146 -89349 -94533 -90298 -89854 
2469.595 -93693 -92480 -91828 -98219 -100094 -102573 -103641 -101343 -98837 
2473.935 -102540 -110479 -115172 -107015 -98599 -101819 -112333 -111950 
2477.792 -115565 -125716 -127017 -118116 -115995 -112700 -113886 -118437 
2481.649 -121741 -121992 -114894 -108159 -120568 -127100 -120456 -115463 
2485.507 -122002 -128633 -123595 -120790 -124378 -127497 -121622 -117878 
2489.364 -120119 -123704 -122128 -122167 -126102 -131306 -135352 -135847 
2493.222 -132587 -128065 -122128 -120486 -124246 -122392 -115585 -117227 
2497.079 -119118 -121576 -127404 -127843 -124827 -124470 -126690 -126139 
2500.937 -132214 -139510 -139821 -136363 -139682 -136079 -133978 -140792 
2504.794 -142202 -140610 -133965 -125762 -129763 -137297 -143873 -143272 
2508.651 -144230 -143526 -146000 -146545 -139857 -144537 -146168 -146858 
2512.509 -149454 -147159 -148047 -147066 -146518 -144781 -134734 -133572 
2516.366 -143160 -147479 -142116 -139382 -142856 -139408 -136455 -143639 
2520.224 -146637 -139382 -143804 -148589 -143437 -138814 -144712 -148754 
2524.081 -142271 -143817 -149011 -145508 -153552 -156873 -152720 -146634 
2527.938 -145168 -149196 -148965 -144032 -144537 -137829 -142767 -145197 
2531.796 -139818 -140115 -149992 -152251 -146409 -147050 -154925 -158118 
2535.653 -151359 -145812 -144441 -145792 -148014 -149021 -149725 -141855 
2539.511 -142955 -147932 -147809 -145254 -145442 -150874 -148377 -144606 
2543.368 -146505 -141951 -146277 -151983 -151032 -143985 -150514 -155744 
2547.226 -156952 -154218 -151458 -146244 -139890 -139606 -148579 -156100 
2551.083 -153618 -154149 -162119 -161356 -159088 -161954 -162224 -163125 
2554.940 -164235 -157018 -153552 -161161 -158926 -157797 -157342 -161023 
2558.798 -162554 -156843 -154549 -158428 -153139 -152726 -158732 -157636 
2562.655 -152478 -148193 -156988 -169242 -165291 -154195 -143903 -146683 
2566.513 -153109 -156137 -165713 -166684 -169770 -168849 -162521 -159286 
2570.370 -159946 -164182 -166020 -174255 -176641 -170793 -165360 -159273 
2574.228 -164713 -171879 -172668 -169407 -169334 -167516 -166539 -163182 
2578.085 -161267 -172842 -173753 -175308 -177007 -174054 -180046 -187783 
2581.942 -178829 -163687 -166482 -173565 -183237 -184969 -177585 -171324 
2585.800 -167955 -170681 -180314 -182643 -176251 -170202 -169681 -173750 
2589.657 -180601 -178297 -174436 -175400 -167443 -164895 -170981 -171196 
2593.515 -163647 -159468 -164310 -175001 -178344 -177654 -169717 -159511 
2597.372 -159778 -164984 -175440 -179987 -171866 -162657 -157695 -161594 
2601.229 -166948 -165215 -161181 -159210 -155103 -155661 -159560 -156635 
2605.087 -150801 -149038 -146574 -149863 -163172 -166433 -154691 -151544 
2608.944 -160145 -160788 -161871 -163687 -152673 -145719 -153779 -155126 
2612.802 -150395 -150478 -155001 -161151 -157193 -156223 -166400 -170866 
2616.659 -167684 -164462 -162822 -168341 -167681 -163050 -161716 -165766 
2620.517 -168344 -168984 -168351 -162894 -162280 -169790 -173268 -171361 
2624.374 -165337 -166268 -167882 -165363 -157084 -157705 -166271 -173681 
2628.231 -173694 -168839 -163023 -164581 -168912 -169968 -172460 -175027 
2632.089 -171536 -172083 -180092 -186728 -175512 -167364 -174908 -177354 
2635.946 -177667 -179251 -172879 -165756 -169809 -171971 -178033 -184148 
2639.804 -178136 -172615 -161409 -165393 -181478 -185114 -185913 -187905 
2643.661 -187226 -183742 -179749 -179066 -176803 -171460 -167978 -172770 
2647.519 -173493 -176126 -177354 -171971 -174790 -178776 -176779 -172635 
2651.376 -170701 -177080 -174889 -175219 -183240 -184501 -171984 -163333 
2655.233 -172753 -180818 -178462 -175364 -177482 -173321 -164169 -156847 
2659.091 -162472 -167700 -164023 -168931 -169773 -170536 -168215 -164967 
2662.948 -168737 -174786 -171809 -171486 -174377 -172219 -174450 -175667 
2666.806 -178024 -173100 -167459 -170064 -165746 -160253 -162026 -164957 
2670.663 -165152 -175859 -178561 -172126 -172717 -168875 -164545 -165776 
2674.521 -162422 -155919 -158250 -165126 -163317 -164116 -160960 -158266 
2678.378 -162610 -160283 -155424 -157002 -159927 -161954 -167143 -171542 
2682.235 -168509 -161822 -164528 -171796 -171661 -171166 -162931 -157081 
2686.093 -157431 -158240 -155186 -155991 -167479 -174430 -164192 -153509 
2689.950 -156487 -154644 -152848 -157824 -159606 -158131 -162733 -164812 
2693.808 -166664 -168928 -169499 -159448 -156021 -158395 -153974 -156645 
2697.665 -158827 -160623 -155027 -159171 -166162 -160815 -154780 -153248 
2701.522 -144699 -146003 -154707 -157678 -159732 -156635 -151158 -152237 
2705.380 -149837 -154780 -159861 -156011 -142674 -147139 -158771 -162785 
2709.237 -161234 -161099 -159016 -158180 -155219 -159861 -166737 -160366 
2713.095 -157305 -160643 -161485 -159339 -155315 -151141 -151808 -151742 
2716.952 -150643 -151049 -160475 -164878 -158227 -150563 -153948 -157672 
2720.810 -152964 -146545 -142810 -149104 -158890 -157916 -149147 -148278 
2724.667 -152756 -156104 -153228 -149982 -149764 -142526 -139253 -156734 
2728.524 -147248 -133066 -137872 -149434 -149764 -142159 -137875 -135352 
2732.382 -140950 -143332 -132270 -131362 -124493 -120423 -125138 -124963 
2736.239 -117475 -109514 -101489 -104685 -107144 -102061 -102226 -109874 
2740.097 -108724 -104302 -103826 -98150 -100252 -97082 -89745 -91666 -98394 
2744.436 -95350 -93316 -95393 -90837 -87378 -94665 -99671 -100153 -99442 
2748.776 -97981 -93802 -91564 -85794 -90810 -100206 -102375 -104781 -110968 
2753.115 -111481 -118807 -128623 -129581 -128481 -127434 -136478 -135606 
2756.973 -131718 -133859 -134946 -137004 -143840 -145534 -142783 -140703 
2760.830 -141799 -151059 -155889 -150223 -145435 -141059 -142975 -146984 
2764.688 -151660 -149847 -141670 -145868 -152261 -148216 -146489 -139481 
2768.545 -145656 -151874 -152049 -153013 -146046 -143269 -145452 -146499 
2772.403 -147895 -149431 -152478 -151907 -145683 -145729 -145359 -144193 
2776.260 -144775 -141931 -146168 -144828 -148698 -146106 -140627 -148133 
2780.117 -153423 -154268 -156688 -155315 -153489 -147096 -145003 -151973 
2783.975 -145287 -136693 -141040 -146168 -144425 -148754 -150395 -147747 
2787.832 -143464 -151881 -159006 -155873 -157395 -159524 -151646 -142189 
2791.690 -133700 -140699 -156209 -157167 -148579 -137591 -142106 -145112 
2795.547 -142367 -139197 -139537 -133003 -130285 -132518 -133681 -125845 
2799.405 -126875 -140369 -148232 -143573 -139296 -131718 -135818 -152885 
2803.262 -157900 -146905 -145386 -142186 -142645 -141396 -134487 -130146 
2807.119 -130331 -132838 -137671 -137578 -142314 -138473 -135847 -136194 
2810.977 -136307 -140230 -139500 -137023 -136326 -139051 -148477 -147321 
2814.834 -136267 -132131 -135563 -140901 -138130 -132894 -125494 -128550 
2818.692 -140950 -140326 -134625 -126532 -131827 -145009 -145389 -141736 
2822.549 -139619 -141812 -141865 -143546 -141799 -125974 -114723 -121368 
2826.406 -128930 -131609 -130830 -127929 -138929 -146343 -135451 -130397 
2830.264 -126991 -124956 -120466 -120314 -121008 -126238 -137433 -133839 
2834.121 -119468 -111821 -115760 -119408 -124517 -123717 -112069 -106341 
2837.979 -112812 -110000 -113929 -112029 -105277 -109276 -109408 -104556 
2841.836 -103935 -100041 -100728 -107075 -109977 -103284 -96699 -91647 
2845.694 -92682 -97753 -94156 -89359 -91028 -98110 -91584 -82100 -76580 
2850.033 -65349 -52431 -48874 -60833 -63553 -50091 -39284 -37636 -44375 
2854.373 -43651 -30729 -18639 -6294 -3650 -4110 150 14423 34056 44844 60585 
2859.677 76508 77245 93200 108992 121029 124468 140175 155329 178915 205430 
2864.499 221386 230518 245384 259451 264845 292447 313190 313657 317285 
2868.838 342405 356922 366006 382412 395110 402718 413979 427650 436501 
2873.178 446255 453001 456373 467444 463365 460019 460853 467678 471611 
2877.517 467518 462169 448839 444410 451524 446817 439728 437073 438131 
2881.857 421720 411999 427439 420352 409938 418465 415421 409039 387825 
2886.197 358796 330020 331246 342883 333052 298571 282824 283304 293737 
2890.536 297554 312896 313637 291689 287753 302432 310450 313584 323354 
2894.876 335613 308792 298311 291856 273217 253362 267685 265628 266939 
2899.215 268289 254808 252895 263118 273163 272423 267199 274667 290328 
2903.555 307694 327453 342642 363707 371868 360847 358061 310977 268702 
2907.895 288944 319879 336551 329386 314425 319755 328371 344857 362615 
2912.234 376941 380079 378492 379755 399641 425274 444749 484897 512002 
2916.574 457581 393625 365846 351353 416923 451976 462327 474123 492403 
2920.913 500996 516562 543250 573625 603375 647689 662507 659826 683017 
2925.253 715746 743110 818090 835441 673819 638849 649946 693941 751177 
2929.593 788711 820251 826130 828359 838789 863476 906591 949773 980671 
2933.932 990985 959633 963590 1003509 1029005 1038686 1099845 1082085 936655 
2938.272 828115 805832 867322 904825 928521 939601 922374 894379 901780 
2942.611 908919 924235 946796 952246 915991 885647 887588 919182 939347 
2946.951 973968 1033898 895269 585162 615405 698426 735979 763146 794191 
2951.291 791320 774714 764364 777241 802250 842525 859548 848235 829797 
2955.630 818032 829399 844292 849228 903083 875814 418040 325971 462383 
2959.970 513423 519989 516485 502719 474739 456778 456373 463827 478374 
2964.309 504861 502760 469705 441461 436769 454534 477302 513340 576777 
2968.649 352957 125754 244058 323006 345445 362912 381744 378278 377944 
2972.989 414210 451541 496978 528128 538584 536769 515013 518285 548028 
2977.328 583544 648749 741203 624661 296813 391068 469966 482552 489950 
2981.668 509806 490801 482424 483376 499381 542700 546548 510322 484763 
2986.007 453513 438580 446285 469397 508928 546830 322212 117470 217319 
2990.347 246154 245621 262651 306636 320964 314842 278095 274704 309062 
2994.687 287083 239430 235588 213963 202853 183766 180881 189885 194748 
2999.026 106710 40602 83220 105342 97906 95688 104631 103040 109457 116244 
3003.848 169250 193253 176000 186917 188438 163862 174962 153600 115749 
3008.188 89070 80827 56033 113862 207750 243015 266635 287356 321050 378515 
3013.009 336064 360106 390653 461704 385187 289481 290375 299753 166952 
3017.349 -63940 -384827 -643622 -481052 -49403 154358 207274 230402 223953 
3021.688 229949 252222 299012 313137 336652 394879 405329 372867 387042 
3026.028 401998 421935 418030 430126 407520 386457 287627 327944 454662 
3030.368 538258 572772 622012 665925 630655 581421 612962 688861 750432 
3034.707 711583 669623 670622 691823 722592 762340 779616 795153 697766 
3039.047 657185 709229 748170 756578 759929 760877 766006 778961 813086 
3043.386 845674 856679 849985 850103 849258 820656 783077 787517 787365 
3047.726 793783 649758 538869 587483 580239 577090 559828 539436 507329 
3052.066 500467 534545 548625 531063 505307 494809 515154 526706 556106 
3056.405 618984 615818 601766 267889 181290 335980 390777 417341 404115 
3060.745 396782 391272 406136 419492 420101 414079 421587 493234 540778 
3065.084 486710 442305 430772 528886 573477 97444 100988 241602 268902 
3069.424 278645 273653 307981 324298 328642 311288 312900 332277 335576 
3073.764 355485 393535 387607 373709 387109 510600 267712 63 216051 281957 
3078.585 251582 264618 329506 341283 312963 309416 301391 303089 342876 
3082.925 341120 322876 326715 308184 274084 396591 323067 -279007 -49526 
3087.265 90325 60579 54743 90909 112387 118952 96973 64375 51783 105289 
3092.086 142176 153018 168825 149753 127385 221705 248406 -226194 -90691 
3096.426 29404 -49251 -54377 -28335 5451 30266 59003 55350 33306 84375 
3101.248 148492 108092 110949 130463 125338 193263 225785 -217258 -189519 
3105.587 -42528 -69230 -69442 -28524 -5492 2221 1402 -31584 -36302 -11557 
3110.409 -797 15841 32069 26290 28873 142744 116048 -248319 -157107 -66904 
3115.231 -75178 -30491 -27372 -70719 -58735 -44200 -24567 -6144 -993 -35418 
3120.053 -17695 -7655 -42088 -15695 117912 67720 -201710 -148295 -102127 
3124.392 -151277 -160511 -131735 -108159 -65488 -34832 -57246 -86670 -84517 
3128.732 -87292 -67936 -65250 -82037 -39996 23290 -117389 -181597 -101994 
3133.072 -23444 -82996 -135646 -141727 -140736 -127460 -115420 -120918 
3136.929 -111795 -116051 -122759 -104900 -76312 -69250 -37967 -83823 -140267 
3141.269 -144451 -137737 -144250 -133066 -125177 -139041 -130057 -116458 
3145.126 -111821 -118225 -126357 -112297 -113913 -121060 -98064 -62355 
3148.983 -84941 -131956 -133710 -146432 -162043 -168235 -152495 -134665 
3152.841 -127919 -124645 -121136 -112740 -116775 -126201 -124176 -123056 
3156.698 -101575 -74523 -92281 -117852 -117340 -124421 -145059 -154248 
3160.556 -164017 -156695 -145538 -137261 -115043 -107627 -117264 -138579 
3164.413 -140369 -129370 -103108 -99231 -124424 -116586 -98394 -114356 
3168.271 -134827 -138635 -144002 -159349 -159917 -139785 -119934 -114025 
3172.128 -113480 -129350 -143652 -144527 -127900 -106625 -111986 -124331 
3175.985 -115559 -115235 -133423 -130909 -54463 -39804 -117376 -136766 
3179.843 -123139 -109673 -114445 -124817 -124239 -118539 -127863 -129680 
3183.700 -129307 -130407 -113754 -84283 -99571 -137664 -142050 -150378 
3187.558 -157507 -163558 -156331 -151422 -146459 -149893 -150137 -144818 
3191.415 -142153 -139441 -122541 -127341 -143767 -138728 -130876 -133469 
3195.272 -142278 -124811 -115648 -138655 -126003 -65214 -61495 -114967 
3199.130 -133423 -127956 -120671 -125808 -133152 -133885 -134966 -145039 
3202.987 -146545 -141423 -139725 -139322 -138424 -145230 -151818 -147331 
3206.845 -140736 -147175 -136875 -127166 -136188 -114316 -54927 -90423 
3210.702 -152617 -153036 -132700 -127295 -130830 -129931 -95548 -41744 
3214.560 -65855 -123010 -129102 -132693 -132875 -125706 -125296 -134691 
3218.417 -133836 -111454 -82351 -98642 -111573 -112647 -126743 -116041 
3222.274 -108642 -128940 -144808 -143166 -143949 -139699 -144771 -151045 
3226.132 -137139 -137628 -123724 -107911 -131358 -144544 -138480 -131913 
3229.989 -110413 -113206 -129350 -133334 -126221 -122686 -108324 -101704 
3233.847 -122577 -131028 -130225 -123155 -128990 -114564 -93868 -116917 
3237.704 -141360 -150233 -159263 -157556 -133991 -112224 -117181 -125283 
3241.562 -125293 -125772 -127533 -132508 -150692 -153258 -97320 -11067 
3245.419 -25531 -111454 -153406 -156860 -149573 -161841 -171394 -158712 
3249.276 -141066 -143804 -143976 -137591 -132809 -134496 -130470 -134774 
3253.134 -141941 -116702 -41837 -50174 -116068 -136538 -136049 -132680 
3256.991 -111606 -100914 -130202 -144616 -136776 -126056 -128735 -108202 
3260.849 -102904 -122570 -137023 -141076 -124269 -110839 -132032 -144785 
3264.706 -135646 -131104 -140359 -142803 -138556 -139874 -145775 -148133 
3268.563 -151240 -151901 -152168 -149662 -130836 -126829 -130846 -126836 
3272.421 -131395 -116481 -60585 -35136 -103601 -141872 -128540 -114934 
3276.278 -65865 -62484 -110340 -126026 -137611 -138133 -126856 -116315 
3280.136 -104953 -121982 -135326 -143817 -154321 -139560 -116210 -110069 
3283.993 -131193 -137222 -134939 -140353 -143249 -144910 -143239 -139249 
3287.851 -136855 -111993 -96285 -124305 -137013 -129489 -120846 -82765 
3291.708 -79768 -107819 -103465 -110783 -125468 -122266 -134592 -146736 
3295.565 -130856 -123304 -130810 -115595 -93852 -107911 -129872 -135854 
3299.423 -137152 -128838 -123172 -128405 -138734 -148496 -142664 -130562 
3303.280 -122808 -131424 -141380 -133730 -125679 -138804 -147697 -132571 
3307.138 -127807 -129763 -104226 -61227 -67745 -112479 -115968 -114250 
3310.995 -125845 -124883 -115641 -111841 -102553 -88707 -117300 -147215 
3314.853 -146555 -138351 -134662 -137235 -130635 -126096 -122385 -128094 
3318.710 -129267 -129406 -129532 -138417 -147809 -146849 -142849 -131239 
3322.567 -114134 -99578 -117280 -126618 -108972 -101664 -93647 -89636 
3326.425 -101796 -120743 -124817 -121364 -116943 -122210 -133826 -132683 
3330.282 -138500 -150002 -132551 -108414 -121999 -140997 -140042 -129839 
3334.140 -100930 -75505 -89405 -112353 -110651 -55717 -29441 -86667 -118899 
3338.479 -123605 -128055 -128752 -113361 -107597 -115853 -121219 -122752 
3342.337 -120155 -118638 -112829 -104110 -110965 -119009 -128616 -131183 
3346.194 -123007 -135573 -146865 -138361 -133003 -132726 -132442 -124817 
3350.052 -125746 -142773 -146660 -142225 -127497 -119045 -121797 -121249 
3353.909 -122296 -114729 -110377 -95703 -87722 -102391 -99578 -117006 
3357.766 -138698 -137598 -145983 -129944 -101895 -106764 -123515 -105009 
3361.624 -64367 -60717 -79097 -97003 -102494 -96837 -86574 -85572 -52842 
3365.963 -39483 -101161 -118420 -85705 -69743 -97065 -111983 -118741 -131894 
3370.303 -139507 -135563 -133076 -132359 -135441 -122779 -116173 -130569 
3374.160 -138929 -131388 -125293 -130480 -145600 -156199 -151564 -125075 
3378.018 -114352 -123109 -130734 -132617 -137307 -129674 -127919 -126681 
3381.875 -124331 -110767 -111662 -124774 -112148 -71297 -73927 -99753 -80595 
3386.215 -97889 -119980 -121239 -129307 -147149 -153651 -138995 -132339 
3390.072 -128977 -124728 -119633 -113820 -92113 -350 36539 -55350 -113867 
3394.412 -128220 -134110 -134800 -130995 -114181 -51617 812 -72435 -134909 
3398.751 -127992 -132508 -130807 -132240 -124622 -104219 -107746 -122798 
3402.609 -126423 -104014 -75330 -91372 -119650 -132782 -137582 -136525 
3406.466 -121156 -119382 -126192 -127275 -135352 -128835 -124910 -133350 
3410.324 -132445 -128075 -118595 -123760 -117852 -109736 -106900 -114062 
3414.181 -132610 -145277 -140802 -128937 -126221 -119220 -119825 -124926 
3418.039 -119246 -99059 -92857 -72270 -366 72903 14091 -55463 -30931 -48258 
3422.860 -83426 -105951 -120221 -130642 -125670 -124853 -133529 -142826 
3426.718 -126581 -115962 -100768 -97836 -121378 -131124 -127265 -115572 
3430.575 -93227 -67493 -80671 -123393 -138417 -140194 -126908 -124127 
3434.433 -126747 -137443 -127526 -123449 -127093 -132174 -128137 -137700 
3438.290 -138556 -132230 -127662 -121814 -116345 -124801 -123677 -114647 
3442.147 -25680 53671 -23262 -108311 -130077 -123909 -74321 -68605 -80833 
3446.487 18752 317188 347455 48343 -46279 -81230 -135084 -148067 -148130 
3450.827 -147014 -146574 -150775 -152918 -148047 -145032 -146178 -134067 
3454.684 -132709 -141409 -110780 -85675 -106520 -123423 -122247 -124847 
3458.542 -120201 -126294 -141499 -133866 -110059 -91776 -66567 -62107 -43631 
3462.881 -18440 -89507 -143031 -155245 -154294 -144616 -134840 -120631 
3466.739 -59781 -51948 -131900 -160362 -141542 -130625 -126092 -114214 
3470.596 -111626 -133892 -141456 -148358 -148377 -138913 -127791 -126836 
3474.453 -96259 -22176 -47593 -131454 -156642 -153228 -138500 -137261 
3478.311 -145561 -145019 -142123 -129188 -61955 7569 -34554 -8318 179989 
3482.650 128509 -89322 -133003 -125884 -140141 -150976 -109709 -90780 
3486.508 -101727 -134189 -94854 43686 44857 -90268 -119101 -124008 -143592 
3490.847 -127037 -108701 -134625 -161208 -181396 -172285 -174697 -187995 
3494.705 -134520 -45776 -72353 -77546 28678 -21752 -128065 -144573 -134820 
3499.044 -143262 -136373 -112654 -140171 -102361 -1897 32799 57519 238670 
3503.384 366173 153187 31731 50364 -37679 -115079 -137582 -121926 -122964 
3507.724 -128481 -99049 1955 189346 302899 98334 -38251 -75995 -64893 -48374 
3512.545 -90122 -109332 -104688 -113153 -125339 -147215 -152690 -144847 
3516.403 -141423 -147496 -102236 -87246 -88998 -32845 -47609 -125931 -154268 
3520.742 -149956 -136188 -102500 20240 227984 327800 183350 124933 36967 
3525.082 11234 89428 34474 35422 282784 260268 108727 115915 278455 216617 
3529.904 -41085 -55903 7857 -38649 -122164 -145792 -159052 -189697 -215497 
3534.243 -181911 -159742 -153195 -64535 156875 157623 -90377 -194226 -210449 
3538.583 -191541 -201334 -195123 -198092 -191287 -197838 -204203 -189225 
3542.440 -100107 -449 21735 59298 91959 316187 582563 251149 45803 396304 
3547.262 553132 114111 21148 2396 -105088 -141601 -113159 -99075 -111609 
3551.602 70783 511824 433593 23330 34726 89687 -97118 -211887 -210155 
3555.941 -199035 -217017 -144653 -112489 -227430 -253762 -245562 -211613 
3559.799 -16261 144795 -23643 -139629 -139428 -46461 14622 47179 270202 
3564.138 174746 29128 118813 627206 1283890 1667208 1118234 638122 1406734 
3568.478 1492521 425903 -130417 -219812 -84455 -81607 -265582 -296913 
3572.335 -223132 -201463 -238445 -238303 -61439 41912 -85033 -263906 -215550 
3576.675 -31226 36473 -271599 -317640 -233389 -204889 -278039 -155562 -84961 
3581.015 -165380 -388344 -316295 -114402 -72793 -171064 -121685 -108972 
3584.872 -175007 -367736 -40910 1030695 1835504 514426 195680 819295 1413398 
3589.212 107199 -317120 -76646 -135032 -573882 -367736 -75350 -87467 232634 
3593.551 504764 198942 -217300 348875 1045505 616043 -392872 -422155 -149797 
3597.891 -134001 -243944 -91151 -10381 -355815 -237446 421707 514818 -484741 
3602.230 -303431 -69323 -378587 -563846 -262902 -228406 -470450 -281232 
3606.088 -34097 396581 1282955 1012689 197896 104465 1127023 1707621 223347 
3610.427 -104831 -109765 -117624 343591 1345231 1745129 833151 333343 771385 
3614.767 1319483 693056 234246 213633 29281 484937 1739194 1590344 281073 
3619.107 626490 1237514 613630 256278 150597 -182953 -86449 -170948 -218434 
3623.446 118945 -219753 -373127 -20812 -139124 190092 790490 375276 222458 
3627.786 886989 2715603 3080721 2621645 2333736 1373326 560053 124544 39740 
3632.125 -127275 22004 147359 782669 1406484 388410 29095 -23593 -87890 
3636.465 52198 -12598 162711 427425 404744 191050 71194 67368 -50518 37140 
3641.287 85029 368750 594778 551887 524127 476176 499334 693938 876098 
3645.626 1118193 1589523 2518858 3786724 4353295 2939061 2621195 3825671 
3649.484 4753602 3715825 4055893 4969382 4655337 3283519 2477992 2344188 
3653.341 2283393 2185044 2194682 2242801 2398526 3116783 4561862 4269835 
3657.199 3107108 2688357 2370820 2141779 2041460 1941220 1986464 1986873 
3661.056 1932486 1886351 1912800 1925648 1918292 1849764 1821543 1776978 
3664.914 1646021 1406433 1254277 1092257 958326 871284 1034855 1629427 
3668.771 2654703 2032060 1447107 2024741 3076774 2085804 1020483 496297 
3672.628 231068 150760 407791 1100718 2413833 3660662 3753794 3912243 
3676.486 2275620 861181 712233 432194 162977 348684 1034027 828109 271836 
3680.825 -153670 -312331 -195189 -167298 -306300 -379851 -118668 175311 
3684.683 156526 -256489 -175331 100 -81819 -158312 654773 1980585 2775078 
3689.022 846968 542878 572238 811479 1677869 2183497 1091360 48134 -619611 
3693.362 -245572 101981 -173007 -627528 -200968 -46626 -339390 -382843 
3697.219 -29974 11831 -499693 -501049 -170644 -244824 -624601 -329516 217716 
3701.559 727194 711984 375330 9252 -928088 -674498 -162006 -209377 -626486 
3705.899 -267213 -65313 -521742 -475812 -35623 63197 415428 1897332 2244388 
3710.238 327890 390486 982572 1762245 3350086 2113895 609346 -120073 -85880 
3714.578 250919 496927 44307 -174146 -13644 -78631 -271062 15503 443453 
3718.917 926963 720260 345518 -255448 -93435 288087 901527 2034171 1559879 
3723.257 -127477 -82497 116391 417244 850546 512381 513172 1510988 993266 
3727.597 59885 201328 -117683 -269725 -151178 -203455 179034 285045 873397 
3731.936 2271169 2375610 1108981 744351 852590 1818105 2996879 3291585 
3735.794 2282517 1589114 2166431 929902 653279 1186001 1177132 521964 240533 
3740.133 346931 543334 1170293 937678 444970 386895 502491 1456169 4173840 
3744.473 7574837 6132715 2641423 1204032 768647 698433 1027302 1081823 
3748.330 1066598 2004715 3938774 3567434 1808718 1352268 1666561 2564226 
3752.188 4130571 3080672 1482221 910963 671894 360025 303279 264938 601514 
3756.527 1428448 1315480 558666 505840 601104 1072259 1819124 2357713 
3760.385 1289951 446024 162412 132706 236741 218522 83841 148147 180302 
3764.724 326298 821375 1813444 1485241 447514 137220 127259 164657 262818 
3769.064 557582 1472526 2434480 1245032 365097 205380 118268 13438 -19725 
3773.404 -1960 -25852 -21080 -8381 -33865 -17172 16034 12149 33721 124418 
3778.225 206631 434276 1333848 2102897 919158 89578 -25229 1074 2691 4928 
3783.047 -12634 1134 186078 658477 805879 411584 115125 39561 33956 -30653 
3787.869 -78650 -118721 -141756 -89633 -22554 -49761 -111709 -122164 -115612 
3792.208 -76454 -62643 -60592 -98725 -141158 -70517 69555 347245 1139804 
3796.548 1958416 1092393 567793 559579 294448 178845 171363 360911 966137 
3800.888 2090135 3546425 2613766 1294594 1126830 964037 307403 73647 77467 
3805.227 138941 210973 675461 1831640 2622652 1057335 269919 -7003 -47007 
3809.567 -63516 -19762 -56839 -84848 -114005 -104748 -129578 -92086 -47881 
3813.906 42721 197936 469993 1167474 2768734 3214428 1417307 590392 208562 
3818.246 161897 320897 349750 734809 1636579 2803958 3173900 2907097 1875849 
3822.586 640244 366431 359982 236208 162269 63688 143117 289918 813542 
3826.925 1259836 616389 274200 220716 79688 51574 84936 129276 313577 
3831.265 1075118 2020038 1103264 282574 150993 185213 472924 1321614 2133704 
3835.604 1141260 491676 449710 993117 2231571 3116338 1544375 748564 708683 
3839.944 1379133 1547255 1704523 1412583 427834 68928 234559 1004770 1810601 
3844.284 969705 223970 1740 -92288 17721 149889 99938 73544 57702 95541 
3849.105 269552 625300 623152 454896 646815 1538957 2980190 2611904 1813226 
3853.445 2548524 4714593 4440766 1698114 751689 193343 130798 651806 1265164 
3857.785 727106 120105 988 56992 97717 57745 83051 401437 1291412 1445699 
3862.606 666470 461576 486335 704198 1432006 2278155 1660151 598699 207067 
3866.946 120334 158258 204148 401922 1149949 2351588 2921104 2646152 1250201 
3871.286 663853 357072 29825 -20656 313077 1185541 2209201 1696333 487963 
3875.625 36546 -87447 -114372 -120367 -126664 -42148 83147 223787 595726 
3879.965 1803568 2829523 1838366 910218 254542 17157 246037 661171 468723 
3884.304 230712 321421 995178 2389797 2001173 643334 152619 10595 -10001 
3888.644 2419 -2500 61547 134065 421235 1390234 2036404 1086794 471055 
3892.984 228746 108119 186068 261238 79871 -23564 -35034 -29008 16736 101838 
3897.805 275477 535014 963285 2110782 1902126 599804 257088 594997 1694930 
3902.145 2145639 949045 375497 682156 1802756 1788771 753365 627932 848525 
3906.485 602999 96893 -56270 -107039 -133050 -166086 -162317 -135847 -84236 
3910.824 -45829 -61061 -99161 -46335 11367 13723 -39261 -56048 -33120 -9835 
3915.646 55472 327123 629226 956510 954627 330077 49080 -3126 184857 722123 
3920.468 696561 155136 -12826 -85033 -107898 -38904 195673 364737 387136 
3924.807 587983 830385 400035 32000 -41092 -79183 -67781 -28557 74347 339887 
3929.629 450959 285839 269122 189546 193144 665027 1009287 475707 74102 
3933.969 109451 94642 -28796 -67043 -136957 -190426 -155295 -129730 -69729 
3938.308 12829 1439 -26114 -33461 -30342 -32872 -68155 -44644 225525 851995 
3943.130 767267 140810 30882 65874 -13674 -62034 -57382 -48771 89528 322289 
3947.952 360707 220413 24291 54026 397106 430494 115248 -13065 -10951 -1774 
3952.774 43282 73869 -33080 -129849 -138361 -63331 -25948 -43389 -10315 
3957.113 33330 -22020 -33663 -34554 -81055 -64036 -68065 -98031 -75340 44645 
3961.935 204138 128884 -35401 -77609 -85007 -89709 -78383 -85559 -88773 
3966.275 -76067 -77986 -92500 -81653 -57882 -5744 64487 23598 -31070 -53921 
3971.096 -93769 -72326 4739 24145 -41138 -70381 -29352 -40466 -63000 -47695 
3975.918 -8834 14661 -39685 -71598 -85602 -103740 -141195 -141363 -114997 
3980.258 -83730 -82348 -99657 -86604 -58394 -55681 -68350 -103710 -128798 
3984.597 -97082 -67202 -57597 -71268 -104946 -140379 -152396 -135643 -94559 
3988.937 -87632 -91590 -68026 -35252 -9010 -45928 -86055 -96447 -111414 
3993.277 -121943 -117991 -108718 -54986 -11935 -74423 -127678 -143827 
3997.134 -140267 -160722 -161320 -137562 -139662 -127857 -106715 -105707 
##END=
